Timestamp,Pod1,Pod2,Pod3,Pod4,Pod5,Pod6,Pod7,Pod8
2025-05-18 17:47:09.665,-3,4,3,-1,-3,0,0,12
2025-05-18 17:47:09.676,-41,-27,-4,0,1,0,-4,-7
2025-05-18 17:47:09.687,13,12,5,-2,2,3,-2,-17
2025-05-18 17:47:09.699,-9,11,3,1,2,-4,-3,0
2025-05-18 17:47:09.710,-9,11,3,1,2,-4,-3,0
2025-05-18 17:47:09.721,-12,-44,-8,0,1,1,-2,2
2025-05-18 17:47:09.732,13,11,-3,1,6,4,2,10
2025-05-18 17:47:09.744,-4,-29,-3,-3,-1,-1,-1,1
2025-05-18 17:47:09.755,-32,-28,-7,-1,0,-1,-3,-15
2025-05-18 17:47:09.767,-32,-28,-7,-1,0,-1,-3,-15
2025-05-18 17:47:09.778,14,13,2,-6,-3,0,-1,-4
2025-05-18 17:47:09.789,14,13,2,-6,-3,0,-1,-4
2025-05-18 17:47:09.799,6,22,12,7,2,2,-1,4
2025-05-18 17:47:09.811,6,22,12,7,2,2,-1,4
2025-05-18 17:47:09.823,10,12,0,-4,-4,-3,3,-11
2025-05-18 17:47:09.833,10,12,0,-4,-4,-3,3,-11
2025-05-18 17:47:09.843,4,9,0,-3,-1,0,-3,-3
2025-05-18 17:47:09.854,4,21,7,6,8,5,5,-1
2025-05-18 17:47:09.867,3,-12,-6,-2,-1,4,1,7
2025-05-18 17:47:09.877,19,-1,-3,1,0,-2,3,-17
2025-05-18 17:47:09.887,19,-1,-3,1,0,-2,3,-17
2025-05-18 17:47:09.899,-4,8,-2,-3,-3,-3,1,25
2025-05-18 17:47:09.910,1,-1,1,1,0,-2,-2,1
2025-05-18 17:47:09.921,-5,5,2,-3,-3,-4,-6,10
2025-05-18 17:47:09.931,-5,5,2,-3,-3,-4,-6,10
2025-05-18 17:47:09.941,6,-15,-4,-1,3,0,-1,-5
2025-05-18 17:47:09.952,6,-15,-4,-1,3,0,-1,-5
2025-05-18 17:47:09.963,-7,20,4,1,1,-1,0,-9
2025-05-18 17:47:09.974,8,4,-2,-2,0,0,3,9
2025-05-18 17:47:09.985,-4,-15,-5,-2,-3,-4,-1,20
2025-05-18 17:47:09.996,7,18,2,-1,-1,0,-5,-22
2025-05-18 17:47:10.007,7,18,2,-1,-1,0,-5,-22
2025-05-18 17:47:10.017,5,-12,-1,1,1,2,6,-14
2025-05-18 17:47:10.029,-22,-18,-5,-9,-4,-3,4,-24
2025-05-18 17:47:10.039,-25,2,-1,4,1,-1,-14,-13
2025-05-18 17:47:10.049,-25,2,-1,4,1,-1,-14,-13
2025-05-18 17:47:10.061,3,-3,-1,-2,1,-3,-19,24
2025-05-18 17:47:10.072,3,-3,-1,-2,1,-3,-19,24
2025-05-18 17:47:10.083,-1,3,2,3,1,2,9,24
2025-05-18 17:47:10.093,0,-2,-2,-1,0,-6,-15,-15
2025-05-18 17:47:10.104,-18,-14,-8,-4,-5,-1,10,-18
2025-05-18 17:47:10.115,30,3,3,5,0,-3,10,39
2025-05-18 17:47:10.126,30,3,3,5,0,-3,10,39
2025-05-18 17:47:10.137,8,-5,-1,-1,-2,-2,-4,-13
2025-05-18 17:47:10.149,5,-3,7,-2,3,3,4,28
2025-05-18 17:47:10.160,-21,-7,-13,-8,-7,-1,-7,0
2025-05-18 17:47:10.170,-21,-7,-13,-8,-7,-1,-7,0
2025-05-18 17:47:10.182,10,16,7,2,6,17,29,53
2025-05-18 17:47:10.193,10,16,7,2,6,17,29,53
2025-05-18 17:47:10.205,5,1,0,0,1,3,-23,-1
2025-05-18 17:47:10.216,-2,-3,5,4,4,2,0,3
2025-05-18 17:47:10.227,1,-8,-5,-5,-4,5,8,18
2025-05-18 17:47:10.239,21,-4,-3,2,0,2,19,-12
2025-05-18 17:47:10.250,21,-4,-3,2,0,2,19,-12
2025-05-18 17:47:10.261,-18,-20,-13,-2,-3,-7,-15,34
2025-05-18 17:47:10.273,0,9,-5,-7,-6,-6,-10,-30
2025-05-18 17:47:10.285,16,-11,1,-4,-3,-5,-15,-53
2025-05-18 17:47:10.294,30,12,2,4,0,9,12,58
2025-05-18 17:47:10.305,-29,-11,-5,-3,-4,-13,-35,-60
2025-05-18 17:47:10.315,-29,-11,-5,-3,-4,-13,-35,-60
2025-05-18 17:47:10.325,5,4,3,-1,0,-6,-7,4
2025-05-18 17:47:10.337,5,4,3,-1,0,-6,-7,4
2025-05-18 17:47:10.347,-5,-2,3,-3,-3,-3,6,-2
2025-05-18 17:47:10.359,-8,-18,5,5,9,-1,-2,-6
2025-05-18 17:47:10.370,-8,-18,5,5,9,-1,-2,-6
2025-05-18 17:47:10.382,-11,-9,-12,-2,-4,-4,8,16
2025-05-18 17:47:10.392,-11,-9,-12,-2,-4,-4,8,16
2025-05-18 17:47:10.403,22,17,3,2,2,4,18,-45
2025-05-18 17:47:10.415,-34,-15,-3,-9,-9,-6,-10,18
2025-05-18 17:47:10.426,-4,2,-1,-2,0,1,-4,6
2025-05-18 17:47:10.436,25,-5,4,5,5,7,11,23
2025-05-18 17:47:10.446,-10,9,10,4,4,5,0,-15
2025-05-18 17:47:10.458,9,-5,1,0,3,-1,7,1
2025-05-18 17:47:10.470,12,3,1,-7,-9,-8,-26,1
2025-05-18 17:47:10.480,-9,2,-1,3,2,0,8,58
2025-05-18 17:47:10.491,-9,2,-1,3,2,0,8,58
2025-05-18 17:47:10.501,0,5,-1,-2,-3,-7,-17,-12
2025-05-18 17:47:10.512,0,5,-1,-2,-3,-7,-17,-12
2025-05-18 17:47:10.522,-4,1,-1,-1,1,8,32,24
2025-05-18 17:47:10.534,8,2,3,1,0,3,1,-20
2025-05-18 17:47:10.545,-7,-7,-10,-10,-8,-6,-11,-2
2025-05-18 17:47:10.557,7,4,4,2,-1,-2,-4,-1
2025-05-18 17:47:10.567,7,4,4,2,-1,-2,-4,-1
2025-05-18 17:47:10.579,2,-6,-3,-2,-3,1,4,-4
2025-05-18 17:47:10.590,2,-6,-3,-2,-3,1,4,-4
2025-05-18 17:47:10.602,-31,-16,-6,-4,-10,-4,-1,4
2025-05-18 17:47:10.612,-31,-16,-6,-4,-10,-4,-1,4
2025-05-18 17:47:10.624,1,-1,-7,1,1,-2,-4,-11
2025-05-18 17:47:10.635,1,-1,-7,1,1,-2,-4,-11
2025-05-18 17:47:10.646,13,0,2,0,1,-2,2,-14
2025-05-18 17:47:10.656,-5,-4,-1,1,-1,2,-3,2
2025-05-18 17:47:10.667,-5,-1,-1,-2,-1,-6,-6,-12
2025-05-18 17:47:10.679,-5,1,-1,0,-2,-3,-6,-15
2025-05-18 17:47:10.689,-5,1,-1,0,-2,-3,-6,-15
2025-05-18 17:47:10.700,33,8,5,1,1,1,1,-10
2025-05-18 17:47:10.711,-8,-4,-2,-3,2,5,-2,-12
2025-05-18 17:47:10.722,-16,-3,-4,-3,-6,-2,-2,-10
2025-05-18 17:47:10.734,-16,-3,-4,-3,-6,-2,-2,-10
2025-05-18 17:47:10.745,8,3,-1,-2,3,5,-2,-7
2025-05-18 17:47:10.755,8,3,-1,-2,3,5,-2,-7
2025-05-18 17:47:10.765,-5,-4,-5,-2,0,-3,-5,-2
2025-05-18 17:47:10.777,11,4,2,-1,1,3,6,30
2025-05-18 17:47:10.789,-19,0,-4,1,-1,-6,-2,8
2025-05-18 17:47:10.800,-4,0,0,-3,-3,-5,-3,1
2025-05-18 17:47:10.811,-4,0,0,-3,-3,-5,-3,1
2025-05-18 17:47:10.823,-1,0,0,2,1,-3,-18,-6
2025-05-18 17:47:10.833,1,-2,0,-1,0,1,4,10
2025-05-18 17:47:10.844,9,-2,-1,-4,-1,-4,-7,2
2025-05-18 17:47:10.855,4,1,-1,0,0,0,9,9
2025-05-18 17:47:10.866,34,0,-2,-3,-1,-2,-9,14
2025-05-18 17:47:10.878,-9,-2,-3,-2,1,0,1,-3
2025-05-18 17:47:10.887,-15,-5,-4,-3,0,0,-1,-12
2025-05-18 17:47:10.898,4,2,3,0,-5,-5,-9,-17
2025-05-18 17:47:10.908,-15,-2,1,3,5,6,9,5
2025-05-18 17:47:10.922,-14,1,1,-2,-1,-2,4,-6
2025-05-18 17:47:10.933,-14,1,1,-2,-1,-2,4,-6
2025-05-18 17:47:10.943,-4,-6,-6,-3,-3,2,8,10
2025-05-18 17:47:10.953,-3,-1,-1,-1,4,2,-6,-3
2025-05-18 17:47:10.965,10,6,2,1,-2,-1,0,0
2025-05-18 17:47:10.976,-2,-5,0,0,-1,-4,1,6
2025-05-18 17:47:10.985,-6,-2,-3,-4,-5,-3,3,-6
2025-05-18 17:47:10.997,-11,-1,-2,-3,-1,1,3,-2
2025-05-18 17:47:11.009,7,2,0,0,-2,-4,-5,5
2025-05-18 17:47:11.019,-12,-1,-3,-1,-1,3,6,-1
2025-05-18 17:47:11.030,-3,-1,-2,-3,-2,-2,-2,1
2025-05-18 17:47:11.042,-12,-2,-2,-2,2,0,4,-12
2025-05-18 17:47:11.053,-12,-2,-2,-2,2,0,4,-12
2025-05-18 17:47:11.065,-8,1,2,1,0,-1,-2,-2
2025-05-18 17:47:11.075,-10,-4,-3,-1,-2,-1,-1,0
2025-05-18 17:47:11.086,29,2,1,0,-6,-6,2,2
2025-05-18 17:47:11.095,1,-2,-1,0,2,-4,-4,2
2025-05-18 17:47:11.107,-17,-3,-3,-2,-2,3,1,-16
2025-05-18 17:47:11.119,18,0,-1,0,-4,0,6,-4
2025-05-18 17:47:11.130,-6,-1,-1,-3,0,0,2,4
2025-05-18 17:47:11.141,-21,-4,-2,0,-3,-2,2,-1
2025-05-18 17:47:11.152,-21,-4,-2,0,-3,-2,2,-1
2025-05-18 17:47:11.163,-11,-5,-6,-3,2,-6,-4,-14
2025-05-18 17:47:11.174,-11,-5,-6,-3,2,-6,-4,-14
2025-05-18 17:47:11.185,-1,-1,-4,-4,-11,1,-8,-15
2025-05-18 17:47:11.197,1,3,1,2,4,-2,2,-1
2025-05-18 17:47:11.208,2,1,0,-3,-9,-2,-3,1
2025-05-18 17:47:11.219,7,0,-1,-1,2,-6,-4,9
2025-05-18 17:47:11.229,7,0,-1,-1,2,-6,-4,9
2025-05-18 17:47:11.239,-4,3,1,0,2,-1,-14,-7
2025-05-18 17:47:11.250,-4,3,1,0,2,-1,-14,-7
2025-05-18 17:47:11.262,-4,0,0,1,0,-4,1,3
2025-05-18 17:47:11.272,-4,0,0,1,0,-4,1,3
2025-05-18 17:47:11.285,-2,-4,-5,-5,-3,3,8,1
2025-05-18 17:47:11.296,-2,-4,-5,-5,-3,3,8,1
2025-05-18 17:47:11.308,-4,-1,-3,0,-1,3,2,0
2025-05-18 17:47:11.318,-4,-2,-4,-3,-3,0,-2,2
2025-05-18 17:47:11.329,4,3,1,-1,-6,-4,-1,6
2025-05-18 17:47:11.340,-6,0,2,-1,7,-2,6,30
2025-05-18 17:47:11.351,-6,0,2,-1,7,-2,6,30
2025-05-18 17:47:11.362,1,0,1,0,-2,0,-7,-3
2025-05-18 17:47:11.375,1,0,1,0,-2,0,-7,-3
2025-05-18 17:47:11.385,-7,-3,-2,0,2,-3,-1,-11
2025-05-18 17:47:11.396,14,3,-1,-1,6,4,4,3
2025-05-18 17:47:11.408,14,3,-1,-1,6,4,4,3
2025-05-18 17:47:11.420,37,4,0,1,0,0,-3,-10
2025-05-18 17:47:11.431,37,4,0,1,0,0,-3,-10
2025-05-18 17:47:11.442,-3,-5,-6,-4,-6,-5,-22,-21
2025-05-18 17:47:11.454,-3,-5,-6,-4,-6,-5,-22,-21
2025-05-18 17:47:11.465,-17,-4,-2,-3,-1,1,-6,-26
2025-05-18 17:47:11.476,-17,-4,-2,-3,-1,1,-6,-26
2025-05-18 17:47:11.487,-4,1,1,1,-2,-5,4,0
2025-05-18 17:47:11.499,-4,1,1,1,-2,-5,4,0
2025-05-18 17:47:11.509,0,1,-1,1,0,8,8,10
2025-05-18 17:47:11.520,5,0,0,-2,1,-6,-3,11
2025-05-18 17:47:11.531,-1,3,1,0,-1,-3,-3,7
2025-05-18 17:47:11.541,-1,0,-1,0,-1,0,2,-3
2025-05-18 17:47:11.553,-1,0,-1,0,-1,0,2,-3
2025-05-18 17:47:11.564,-2,2,2,3,1,1,2,14
2025-05-18 17:47:11.576,-2,-2,-1,-2,-3,-1,1,5
2025-05-18 17:47:11.587,-39,-8,-3,-4,-1,2,-2,-19
2025-05-18 17:47:11.598,-8,-4,1,2,2,-1,-10,-8
2025-05-18 17:47:11.608,10,-1,-3,-4,-6,-7,-2,9
2025-05-18 17:47:11.619,10,-1,-3,-4,-6,-7,-2,9
2025-05-18 17:47:11.631,-13,1,-1,-1,3,0,9,10
2025-05-18 17:47:11.642,-6,-2,-2,-2,-1,-7,4,-1
2025-05-18 17:47:11.653,-6,-2,-2,-2,-1,-7,4,-1
2025-05-18 17:47:11.664,8,0,-2,-1,-3,-4,-3,-8
2025-05-18 17:47:11.676,8,0,-2,-1,-3,-4,-3,-8
2025-05-18 17:47:11.687,8,0,-3,-2,-1,2,4,-4
2025-05-18 17:47:11.698,-11,0,0,-1,-3,-3,-4,-5
2025-05-18 17:47:11.710,-3,3,1,1,4,4,6,8
2025-05-18 17:47:11.721,-1,0,1,-1,-3,-2,-5,8
2025-05-18 17:47:11.731,-1,0,1,-1,-3,-2,-5,8
2025-05-18 17:47:11.743,8,0,0,-2,1,-1,-3,-8
2025-05-18 17:47:11.753,8,0,0,-2,1,-1,-3,-8
2025-05-18 17:47:11.765,-9,0,0,2,-1,-3,2,-6
2025-05-18 17:47:11.775,-9,0,0,2,-1,-3,2,-6
2025-05-18 17:47:11.786,5,-2,-3,-3,-3,-1,12,-9
2025-05-18 17:47:11.797,5,-2,-3,-3,-3,-1,12,-9
2025-05-18 17:47:11.808,9,-8,-4,-4,1,-1,-5,4
2025-05-18 17:47:11.819,-1,-1,1,-2,-6,6,6,10
2025-05-18 17:47:11.830,-13,-2,-1,-2,-3,-2,-7,-28
2025-05-18 17:47:11.840,1,1,2,0,-4,-3,-3,3
2025-05-18 17:47:11.850,1,1,2,0,-4,-3,-3,3
2025-05-18 17:47:11.861,0,-1,-4,-2,-2,-1,-11,7
2025-05-18 17:47:11.872,0,-1,-4,-2,-2,-1,-11,7
2025-05-18 17:47:11.885,1,3,-2,-2,-1,-4,-4,0
2025-05-18 17:47:11.896,1,3,-2,-2,-1,-4,-4,0
2025-05-18 17:47:11.907,3,1,0,1,7,3,8,1
2025-05-18 17:47:11.918,3,1,0,1,7,3,8,1
2025-05-18 17:47:11.929,-4,-1,1,2,0,-8,-4,-2
2025-05-18 17:47:11.940,-9,-2,-2,-2,-2,0,3,-8
2025-05-18 17:47:11.951,-35,-5,-5,-6,-8,-1,-5,-13
2025-05-18 17:47:11.962,8,1,-2,-3,-15,-2,-1,10
2025-05-18 17:47:11.973,8,1,-2,-3,-15,-2,-1,10
2025-05-18 17:47:11.985,30,5,0,1,1,3,3,-3
2025-05-18 17:47:11.996,15,4,0,2,4,3,-2,-2
2025-05-18 17:47:12.006,7,2,1,-1,-3,2,7,19
2025-05-18 17:47:12.017,7,2,1,-1,-3,2,7,19
2025-05-18 17:47:12.027,-12,-2,-2,0,2,1,-1,0
2025-05-18 17:47:12.039,-12,-2,-2,0,2,1,-1,0
2025-05-18 17:47:12.049,3,-3,-4,-2,0,-7,-9,-11
2025-05-18 17:47:12.061,0,-3,-7,-3,-2,-2,0,-16
2025-05-18 17:47:12.071,-7,-2,0,0,2,4,3,-13
2025-05-18 17:47:12.082,9,3,2,0,5,2,4,9
2025-05-18 17:47:12.092,9,3,2,0,5,2,4,9
2025-05-18 17:47:12.104,-2,2,0,0,5,4,-4,-6
2025-05-18 17:47:12.116,-9,-7,-2,1,1,3,2,11
2025-05-18 17:47:12.128,-18,-3,-2,-3,-4,-2,-2,9
2025-05-18 17:47:12.139,-2,-2,-3,-2,-5,-2,-4,-18
2025-05-18 17:47:12.151,-2,-2,-3,-2,-5,-2,-4,-18
2025-05-18 17:47:12.161,12,0,-2,-1,-2,2,-1,6
2025-05-18 17:47:12.172,8,2,-2,0,-1,-2,-1,-3
2025-05-18 17:47:12.183,-13,-1,2,-2,3,-1,-6,-7
2025-05-18 17:47:12.194,-13,-1,2,-2,3,-1,-6,-7
2025-05-18 17:47:12.206,-6,0,-1,-2,-1,-5,6,10
2025-05-18 17:47:12.217,-6,0,-1,-2,-1,-5,6,10
2025-05-18 17:47:12.228,16,1,0,0,5,0,9,10
2025-05-18 17:47:12.239,-1,0,-2,0,1,1,-3,-4
2025-05-18 17:47:12.251,-36,-6,-3,-1,-1,0,-3,0
2025-05-18 17:47:12.261,11,0,-2,0,-1,1,0,-7
2025-05-18 17:47:12.273,11,0,-2,0,-1,1,0,-7
2025-05-18 17:47:12.285,3,1,1,0,-3,-5,-5,-9
2025-05-18 17:47:12.296,3,1,1,0,-3,-5,-5,-9
2025-05-18 17:47:12.307,0,1,1,0,-3,-7,-6,-9
2025-05-18 17:47:12.319,-3,-3,-2,2,5,8,6,-5
2025-05-18 17:47:12.329,-3,-1,0,-1,0,3,5,1
2025-05-18 17:47:12.339,-3,-1,0,-1,0,3,5,1
2025-05-18 17:47:12.349,-5,1,-5,-4,-1,-1,-2,5
2025-05-18 17:47:12.359,-5,1,-5,-4,-1,-1,-2,5
2025-05-18 17:47:12.370,2,1,-1,-5,-5,-7,-1,10
2025-05-18 17:47:12.382,-1,-2,1,1,7,8,4,12
2025-05-18 17:47:12.392,-1,-2,1,1,7,8,4,12
2025-05-18 17:47:12.404,-15,-6,-3,-1,-3,2,-6,-22
2025-05-18 17:47:12.415,-15,-6,-3,-1,-3,2,-6,-22
2025-05-18 17:47:12.426,2,2,-1,-1,-11,-2,6,4
2025-05-18 17:47:12.436,2,2,-1,-1,-11,-2,6,4
2025-05-18 17:47:12.447,-1,-1,-2,-3,-9,3,-5,-5
2025-05-18 17:47:12.458,-1,-1,-2,-3,-9,3,-5,-5
2025-05-18 17:47:12.468,10,2,4,4,3,-5,-7,6
2025-05-18 17:47:12.479,10,2,4,4,3,-5,-7,6
2025-05-18 17:47:12.490,12,6,3,3,6,5,12,10
2025-05-18 17:47:12.501,-8,-4,1,1,1,-1,-6,14
2025-05-18 17:47:12.513,-8,0,-1,0,-2,-4,4,-6
2025-05-18 17:47:12.523,4,0,-4,2,8,0,-11,8
2025-05-18 17:47:12.533,4,0,-4,2,8,0,-11,8
2025-05-18 17:47:12.544,5,1,0,-2,-2,-2,-2,-22
2025-05-18 17:47:12.556,5,1,0,-2,-2,-2,-2,-22
2025-05-18 17:47:12.565,-4,0,-1,-2,-4,-2,0,-17
2025-05-18 17:47:12.578,-4,0,-1,-2,-4,-2,0,-17
2025-05-18 17:47:12.589,-1,1,-1,-2,3,-1,3,7
2025-05-18 17:47:12.600,-1,1,-1,-2,3,-1,3,7
2025-05-18 17:47:12.610,-6,-5,-4,-4,-4,-3,3,15
2025-05-18 17:47:12.621,12,-2,-1,1,4,0,4,6
2025-05-18 17:47:12.632,-1,2,6,3,1,-5,-8,-9
2025-05-18 17:47:12.642,-4,-2,-4,-4,-2,-2,-1,1
2025-05-18 17:47:12.653,-4,-2,-4,-4,-2,-2,-1,1
2025-05-18 17:47:12.664,-18,-2,-1,-2,-3,0,6,4
2025-05-18 17:47:12.675,-18,-2,-1,-2,-3,0,6,4
2025-05-18 17:47:12.686,23,2,1,2,1,-1,-9,-8
2025-05-18 17:47:12.697,23,2,1,2,1,-1,-9,-8
2025-05-18 17:47:12.707,4,-1,-1,0,4,4,-2,-3
2025-05-18 17:47:12.719,4,-1,-1,0,4,4,-2,-3
2025-05-18 17:47:12.729,-16,-8,-4,-2,-5,3,10,11
2025-05-18 17:47:12.739,-7,0,-3,-2,-6,1,-4,-13
2025-05-18 17:47:12.751,-6,-1,-2,-1,1,-1,-14,-18
2025-05-18 17:47:12.763,-4,1,-2,-3,-4,-5,-1,-7
2025-05-18 17:47:12.774,-4,1,-2,-3,-4,-5,-1,-7
2025-05-18 17:47:12.786,0,-1,0,-1,-15,-6,-3,-20
2025-05-18 17:47:12.796,-5,-3,0,-1,5,4,2,-2
2025-05-18 17:47:12.808,-12,-2,1,2,7,0,-2,-8
2025-05-18 17:47:12.818,-12,-2,1,2,7,0,-2,-8
2025-05-18 17:47:12.829,1,3,-1,1,4,-5,7,35
2025-05-18 17:47:12.840,1,3,-1,1,4,-5,7,35
2025-05-18 17:47:12.850,1,-2,-1,-1,3,4,-2,-2
2025-05-18 17:47:12.861,19,2,-1,0,-2,-3,-1,1
2025-05-18 17:47:12.872,16,2,-1,-4,-2,-1,-5,-19
2025-05-18 17:47:12.883,-3,-3,-1,-3,-3,-1,2,-2
2025-05-18 17:47:12.893,-3,-3,-1,-3,-3,-1,2,-2
2025-05-18 17:47:12.904,-2,-1,0,-1,-1,-1,7,12
2025-05-18 17:47:12.915,-2,-1,0,-1,-1,-1,7,12
2025-05-18 17:47:12.926,-11,-3,-2,-1,-3,-1,1,-5
2025-05-18 17:47:12.936,-11,-3,-2,-1,-3,-1,1,-5
2025-05-18 17:47:12.948,3,2,-3,-2,-3,-1,1,10
2025-05-18 17:47:12.958,3,2,-3,-2,-3,-1,1,10
2025-05-18 17:47:12.968,2,0,0,0,3,2,4,1
2025-05-18 17:47:12.979,-3,-3,-1,-1,-1,0,-3,-22
2025-05-18 17:47:12.989,-3,-2,0,-1,-5,-6,-5,-8
2025-05-18 17:47:13.001,30,2,1,0,1,-10,-1,5
2025-05-18 17:47:13.012,9,1,-3,0,2,-7,-13,-8
2025-05-18 17:47:13.022,-10,-4,-2,-3,-3,2,-6,-5
2025-05-18 17:47:13.033,-1,-1,-1,0,6,1,3,1
2025-05-18 17:47:13.045,-14,0,1,1,2,-4,-2,-20
2025-05-18 17:47:13.056,-8,1,1,1,-3,9,6,4
2025-05-18 17:47:13.066,10,1,0,-1,1,-1,-3,8
2025-05-18 17:47:13.076,10,1,0,-1,1,-1,-3,8
2025-05-18 17:47:13.088,-1,0,0,-2,2,1,7,14
2025-05-18 17:47:13.099,-9,-5,-1,-3,-1,-5,0,1
2025-05-18 17:47:13.111,-1,2,0,-2,-1,2,2,-7
2025-05-18 17:47:13.123,-6,-2,-3,-3,-3,-4,0,-1
2025-05-18 17:47:13.134,-6,-2,-3,-3,-3,-4,0,-1
2025-05-18 17:47:13.145,11,-1,-2,-1,-3,-5,-2,-7
2025-05-18 17:47:13.157,5,0,-1,1,1,1,-1,11
2025-05-18 17:47:13.167,11,2,3,1,0,6,16,7
2025-05-18 17:47:13.178,11,2,3,1,0,6,16,7
2025-05-18 17:47:13.189,-6,-6,-6,0,-2,-7,-4,6
2025-05-18 17:47:13.200,-6,-6,-6,0,-2,-7,-4,6
2025-05-18 17:47:13.211,-15,-3,-1,-1,0,4,0,-8
2025-05-18 17:47:13.221,21,4,1,-1,4,0,-4,8
2025-05-18 17:47:13.231,-2,-4,0,0,1,0,1,-6
2025-05-18 17:47:13.242,-12,1,2,-1,1,1,-4,-26
2025-05-18 17:47:13.253,-12,1,2,-1,1,1,-4,-26
2025-05-18 17:47:13.265,-1,0,-2,-2,0,-2,0,-2
2025-05-18 17:47:13.277,-1,0,-2,-2,0,-2,0,-2
2025-05-18 17:47:13.287,5,1,0,-2,-4,3,-8,10
2025-05-18 17:47:13.299,5,1,0,-2,-4,3,-8,10
2025-05-18 17:47:13.310,6,2,-3,-1,-1,3,-3,3
2025-05-18 17:47:13.321,6,2,-3,-1,-1,3,-3,3
2025-05-18 17:47:13.334,-9,-4,-2,-2,-4,-6,3,4
2025-05-18 17:47:13.346,-3,-1,-1,1,0,0,-1,-5
2025-05-18 17:47:13.357,27,2,2,4,0,-5,-5,-10
2025-05-18 17:47:13.368,-9,0,-2,-2,1,0,1,25
2025-05-18 17:47:13.378,-9,0,-2,-2,1,0,1,25
2025-05-18 17:47:13.390,-3,0,-1,-3,-2,-3,-9,-13
2025-05-18 17:47:13.401,-3,0,-1,-3,-2,-3,-9,-13
2025-05-18 17:47:13.411,-5,1,0,1,7,0,3,6
2025-05-18 17:47:13.422,-6,-6,-6,-3,-1,-1,-1,-4
2025-05-18 17:47:13.433,-14,-3,-2,-4,-6,0,3,-12
2025-05-18 17:47:13.444,2,-1,-2,-2,-1,1,-5,6
2025-05-18 17:47:13.456,2,-1,-2,-2,-1,1,-5,6
2025-05-18 17:47:13.468,-4,0,-2,-2,0,1,8,0
2025-05-18 17:47:13.479,-4,0,-2,-2,0,1,8,0
2025-05-18 17:47:13.490,1,0,1,-1,-11,2,-8,-26
2025-05-18 17:47:13.500,1,0,1,-1,-11,2,-8,-26
2025-05-18 17:47:13.511,11,0,0,4,5,2,-1,-11
2025-05-18 17:47:13.523,11,0,0,4,5,2,-1,-11
2025-05-18 17:47:13.534,-16,-3,-1,-1,1,-2,-5,-1
2025-05-18 17:47:13.546,-4,-2,-1,-1,2,0,7,14
2025-05-18 17:47:13.557,1,1,-1,-2,-3,-3,8,3
2025-05-18 17:47:13.568,-5,-3,-2,-4,-2,0,6,14
2025-05-18 17:47:13.579,-5,-3,-2,-4,-2,0,6,14
2025-05-18 17:47:13.590,11,5,1,0,-5,0,4,13
2025-05-18 17:47:13.601,-8,-3,-1,-1,-6,-8,-15,-17
2025-05-18 17:47:13.611,-49,-7,-3,-3,-2,-5,-7,-21
2025-05-18 17:47:13.622,-10,-2,-1,-2,2,2,-1,4
2025-05-18 17:47:13.636,12,0,-2,0,2,-2,7,5
2025-05-18 17:47:13.647,8,-2,-2,0,0,-5,-8,6
2025-05-18 17:47:13.658,8,-2,-2,0,0,-5,-8,6
2025-05-18 17:47:13.669,5,1,1,3,5,-1,-1,-7
2025-05-18 17:47:13.680,5,1,1,3,5,-1,-1,-7
2025-05-18 17:47:13.691,4,-2,0,-2,-2,-7,0,-3
2025-05-18 17:47:13.701,4,-2,0,-2,-2,-7,0,-3
2025-05-18 17:47:13.714,-10,-2,1,-1,2,-2,-3,3
2025-05-18 17:47:13.725,-10,-2,1,-1,2,-2,-3,3
2025-05-18 17:47:13.736,3,-1,-1,0,0,5,0,-5
2025-05-18 17:47:13.747,18,6,2,2,6,4,4,-1
2025-05-18 17:47:13.758,18,6,2,2,6,4,4,-1
2025-05-18 17:47:13.769,-1,-1,-1,-2,-2,2,-5,13
2025-05-18 17:47:13.781,1,-3,-1,-4,-1,0,-3,-18
2025-05-18 17:47:13.792,-11,-2,-1,-1,-4,-2,-3,-4
2025-05-18 17:47:13.803,11,0,-4,0,-1,-3,1,4
2025-05-18 17:47:13.814,-11,-2,-3,2,1,2,10,-4
2025-05-18 17:47:13.827,0,-1,0,-2,-5,2,-2,-3
2025-05-18 17:47:13.837,0,-1,0,-2,-5,2,-2,-3
2025-05-18 17:47:13.848,-7,-6,-3,-4,-7,-2,-4,-1
2025-05-18 17:47:13.859,-7,-6,-3,-4,-7,-2,-4,-1
2025-05-18 17:47:13.869,6,1,-2,-1,-3,0,-1,-13
2025-05-18 17:47:13.880,6,1,-2,-1,-3,0,-1,-13
2025-05-18 17:47:13.891,-1,-1,-1,-4,-2,3,8,4
2025-05-18 17:47:13.902,8,0,1,-1,-3,1,0,-1
2025-05-18 17:47:13.913,0,0,-1,-1,1,3,-8,0
2025-05-18 17:47:13.923,-2,0,0,1,1,-1,1,20
2025-05-18 17:47:13.934,-2,0,0,1,1,-1,1,20
2025-05-18 17:47:13.945,3,-1,-3,-3,1,-1,-4,-3
2025-05-18 17:47:13.956,-1,-2,-3,-3,0,-6,-5,-14
2025-05-18 17:47:13.967,-33,1,0,0,-2,-10,-4,-16
2025-05-18 17:47:13.977,9,5,1,2,3,1,6,2
2025-05-18 17:47:13.987,8,3,1,1,0,-5,-5,-3
2025-05-18 17:47:13.999,8,3,1,1,0,-5,-5,-3
2025-05-18 17:47:14.010,7,-2,-1,-1,-1,6,8,-14
2025-05-18 17:47:14.021,6,-3,-3,-2,-3,-2,0,-11
2025-05-18 17:47:14.032,-4,-1,-2,-2,-1,-2,-7,-17
2025-05-18 17:47:14.042,2,-1,-2,-2,-3,0,-1,14
2025-05-18 17:47:14.054,-10,-1,0,1,-3,-3,-2,7
2025-05-18 17:47:14.065,-10,-1,0,1,-3,-3,-2,7
2025-05-18 17:47:14.076,-5,-2,0,0,2,-1,-1,-9
2025-05-18 17:47:14.088,-13,-1,0,1,1,3,-11,-11
2025-05-18 17:47:14.100,-13,-1,0,1,1,3,-11,-11
2025-05-18 17:47:14.111,3,-1,-1,-1,0,-2,12,25
2025-05-18 17:47:14.122,3,-1,-1,-1,0,-2,12,25
2025-05-18 17:47:14.133,11,0,-3,-2,-5,-6,2,10
2025-05-18 17:47:14.145,-4,-5,-3,-2,-6,-1,-1,-7
2025-05-18 17:47:14.156,-4,-1,-2,-1,2,2,-1,-2
2025-05-18 17:47:14.168,9,2,0,-3,-2,-5,7,5
2025-05-18 17:47:14.178,9,2,0,-3,-2,-5,7,5
2025-05-18 17:47:14.189,14,-3,-4,-2,-3,2,-7,4
2025-05-18 17:47:14.199,14,-3,-4,-2,-3,2,-7,4
2025-05-18 17:47:14.211,-14,-4,-3,0,3,-4,-18,-19
2025-05-18 17:47:14.222,-14,-4,-3,0,3,-4,-18,-19
2025-05-18 17:47:14.233,10,2,-2,-3,2,-2,-5,0
2025-05-18 17:47:14.244,10,2,-2,-3,2,-2,-5,0
2025-05-18 17:47:14.255,4,2,2,-1,-2,1,4,-13
2025-05-18 17:47:14.264,4,2,2,-1,-2,1,4,-13
2025-05-18 17:47:14.275,8,3,2,1,1,4,2,11
2025-05-18 17:47:14.285,7,-2,2,1,1,-4,-2,-1
2025-05-18 17:47:14.297,7,-2,2,1,1,-4,-2,-1
2025-05-18 17:47:14.308,-10,-2,0,-2,-5,1,0,2
2025-05-18 17:47:14.318,-10,-2,0,-2,-5,1,0,2
2025-05-18 17:47:14.329,-8,-4,0,-2,0,2,1,-2
2025-05-18 17:47:14.340,-8,-4,0,-2,0,2,1,-2
2025-05-18 17:47:14.352,-4,1,2,2,-10,0,0,8
2025-05-18 17:47:14.362,-4,1,2,2,-10,0,0,8
2025-05-18 17:47:14.372,6,-3,-4,-5,1,-1,1,-1
2025-05-18 17:47:14.384,6,-3,-4,-5,1,-1,1,-1
2025-05-18 17:47:14.396,4,2,-1,-1,-6,-8,-6,5
2025-05-18 17:47:14.407,-2,-3,-4,-3,-5,-4,-7,-16
2025-05-18 17:47:14.418,4,-2,-4,-3,1,0,0,-12
2025-05-18 17:47:14.430,-9,-1,0,-1,1,-4,-2,3
2025-05-18 17:47:14.440,-9,-1,0,-1,1,-4,-2,3
2025-05-18 17:47:14.450,-22,-2,-1,-2,-4,-6,-11,7
2025-05-18 17:47:14.461,-22,-2,-1,-2,-4,-6,-11,7
2025-05-18 17:47:14.473,-4,-1,-1,-1,-1,2,4,3
2025-05-18 17:47:14.482,-4,-1,-1,-1,-1,2,4,3
2025-05-18 17:47:14.494,-8,-3,-3,1,5,2,7,4
2025-05-18 17:47:14.505,-8,-3,-3,1,5,2,7,4
2025-05-18 17:47:14.516,4,-1,-2,-1,-1,3,0,-8
2025-05-18 17:47:14.526,-10,-2,0,1,1,1,-3,-6
2025-05-18 17:47:14.537,1,-1,0,0,-5,2,1,-7
2025-05-18 17:47:14.548,-5,0,1,1,9,4,0,-3
2025-05-18 17:47:14.559,-5,0,1,1,9,4,0,-3
2025-05-18 17:47:14.570,-7,2,0,-1,-1,-4,9,2
2025-05-18 17:47:14.580,-7,2,0,-1,-1,-4,9,2
2025-05-18 17:47:14.590,-3,-2,0,1,3,1,6,17
2025-05-18 17:47:14.602,-3,-2,0,1,3,1,6,17
2025-05-18 17:47:14.613,1,1,0,0,-2,-3,-5,2
2025-05-18 17:47:14.623,1,1,0,0,-2,-3,-5,2
2025-05-18 17:47:14.633,12,1,1,2,-1,-5,-4,-19
2025-05-18 17:47:14.645,3,-2,-1,-4,-6,0,-6,-4
2025-05-18 17:47:14.654,3,-1,0,-3,-6,1,-6,1
2025-05-18 17:47:14.666,-12,-2,-3,-4,-9,-5,6,7
2025-05-18 17:47:14.677,-5,-1,-3,-2,2,-6,-1,0
2025-05-18 17:47:14.688,-1,1,1,0,1,0,-12,-24
2025-05-18 17:47:14.698,-2,-1,0,0,-2,7,-5,-12
2025-05-18 17:47:14.710,11,4,1,0,2,-1,3,2
2025-05-18 17:47:14.721,11,4,1,0,2,-1,3,2
2025-05-18 17:47:14.731,-10,-1,-1,-3,-3,-1,-3,-1
2025-05-18 17:47:14.741,-10,-1,-1,-3,-3,-1,-3,-1
2025-05-18 17:47:14.752,-1,-2,-3,-3,-1,7,22,23
2025-05-18 17:47:14.762,-20,-8,-8,-4,-3,-10,-19,-3
2025-05-18 17:47:14.775,17,-1,-2,-2,1,-3,-6,-9
2025-05-18 17:47:14.786,-25,-3,-3,-4,-1,-4,5,14
2025-05-18 17:47:14.797,-2,-2,-1,-1,-2,-1,-6,-2
2025-05-18 17:47:14.809,-4,-2,-3,-1,0,1,5,-8
2025-05-18 17:47:14.819,-5,-1,2,3,4,-1,4,2
2025-05-18 17:47:14.831,-4,-3,0,-1,-7,-11,2,-5
2025-05-18 17:47:14.841,-4,-3,0,-1,-7,-11,2,-5
2025-05-18 17:47:14.851,-1,1,2,1,-1,1,-2,1
2025-05-18 17:47:14.862,-1,1,2,1,-1,1,-2,1
2025-05-18 17:47:14.872,-5,-2,-2,-3,-6,2,-5,3
2025-05-18 17:47:14.883,12,0,0,-1,0,-2,-5,-6
2025-05-18 17:47:14.894,8,0,-1,-2,-2,1,2,-7
2025-05-18 17:47:14.904,1,0,-2,-2,-3,-1,-1,5
2025-05-18 17:47:14.916,13,1,-2,1,-2,-1,-6,10
2025-05-18 17:47:14.927,-15,0,-1,-3,-1,-4,-5,-31
2025-05-18 17:47:14.938,-7,-4,-3,-3,1,2,-2,9
2025-05-18 17:47:14.949,-2,-3,0,-1,-3,-5,-2,7
2025-05-18 17:47:14.959,0,-1,-1,-1,-4,2,-5,-18
2025-05-18 17:47:14.970,-5,2,2,3,2,3,-7,5
2025-05-18 17:47:14.981,-5,2,2,3,2,3,-7,5
2025-05-18 17:47:14.992,7,4,1,2,4,1,2,-1
2025-05-18 17:47:15.003,-12,-4,-2,-2,-3,0,0,20
2025-05-18 17:47:15.013,-11,2,2,1,-1,-2,13,7
2025-05-18 17:47:15.024,-11,2,2,1,-1,-2,13,7
2025-05-18 17:47:15.036,5,-4,-1,-1,7,-2,2,1
2025-05-18 17:47:15.047,5,-4,-1,-1,7,-2,2,1
2025-05-18 17:47:15.057,-5,-4,-3,-3,0,-2,0,8
2025-05-18 17:47:15.067,-8,-2,1,-2,-4,0,4,-20
2025-05-18 17:47:15.078,-36,-6,-2,2,3,2,-3,9
2025-05-18 17:47:15.089,5,0,-1,-2,-9,-8,-2,-5
2025-05-18 17:47:15.100,5,0,-1,-2,-9,-8,-2,-5
2025-05-18 17:47:15.110,14,5,0,1,2,3,-2,2
2025-05-18 17:47:15.121,14,5,0,1,2,3,-2,2
2025-05-18 17:47:15.131,-27,-6,-1,0,-2,-2,-4,-16
2025-05-18 17:47:15.144,-27,-6,-1,0,-2,-2,-4,-16
2025-05-18 17:47:15.155,17,2,0,-3,-4,-2,12,-16
2025-05-18 17:47:15.165,17,2,0,-3,-4,-2,12,-16
2025-05-18 17:47:15.177,0,-5,-5,-3,1,4,-4,1
2025-05-18 17:47:15.188,0,-5,-5,-3,1,4,-4,1
2025-05-18 17:47:15.199,-4,-2,-1,-1,1,-3,-3,-5
2025-05-18 17:47:15.210,2,3,1,0,2,0,3,5
2025-05-18 17:47:15.222,2,3,1,0,2,0,3,5
2025-05-18 17:47:15.232,9,-2,1,-4,-3,-10,-6,-21
2025-05-18 17:47:15.243,9,-2,1,-4,-3,-10,-6,-21
2025-05-18 17:47:15.253,-3,4,1,1,3,8,6,4
2025-05-18 17:47:15.264,17,0,-2,-1,-3,-2,2,9
2025-05-18 17:47:15.274,-4,-2,1,2,-1,1,-6,5
2025-05-18 17:47:15.285,-4,-2,1,2,-1,1,-6,5
2025-05-18 17:47:15.296,7,2,-1,-1,-5,0,-11,-7
2025-05-18 17:47:15.307,7,2,-1,-1,-5,0,-11,-7
2025-05-18 17:47:15.317,7,-3,-3,0,-1,2,4,23
2025-05-18 17:47:15.330,-4,-4,-3,0,2,3,3,3
2025-05-18 17:47:15.341,-4,-4,-3,0,2,3,3,3
2025-05-18 17:47:15.351,5,0,0,-2,0,-1,1,-5
2025-05-18 17:47:15.361,5,0,0,-2,0,-1,1,-5
2025-05-18 17:47:15.373,3,1,1,0,1,1,2,-5
2025-05-18 17:47:15.384,4,0,-3,1,-3,0,3,16
2025-05-18 17:47:15.394,-1,-1,-1,-3,-1,-3,2,-10
2025-05-18 17:47:15.406,-1,-1,-1,-3,-1,-3,2,-10
2025-05-18 17:47:15.418,-12,-2,-1,-2,-8,-5,-1,4
2025-05-18 17:47:15.429,6,0,-3,-2,0,-8,-4,7
2025-05-18 17:47:15.440,-17,-2,0,1,2,3,-3,-15
2025-05-18 17:47:15.450,8,0,1,1,3,5,-1,-24
2025-05-18 17:47:15.461,8,0,1,1,3,5,-1,-24
2025-05-18 17:47:15.471,4,2,0,0,2,-13,-1,11
2025-05-18 17:47:15.482,4,2,0,0,2,-13,-1,11
2025-05-18 17:47:15.492,-20,-6,-2,-1,-1,7,0,-2
2025-05-18 17:47:15.502,-20,-6,-2,-1,-1,7,0,-2
2025-05-18 17:47:15.514,20,-3,-3,-2,-5,-3,6,-6
2025-05-18 17:47:15.525,20,-3,-3,-2,-5,-3,6,-6
2025-05-18 17:47:15.537,9,2,1,-1,0,2,6,11
2025-05-18 17:47:15.547,9,2,1,-1,0,2,6,11
2025-05-18 17:47:15.560,0,-2,0,-1,-5,-8,-4,11
2025-05-18 17:47:15.570,5,1,1,3,3,4,-5,1
2025-05-18 17:47:15.581,5,1,1,3,3,4,-5,1
2025-05-18 17:47:15.592,2,1,0,0,0,-2,-3,2
2025-05-18 17:47:15.602,2,1,0,0,0,-2,-3,2
2025-05-18 17:47:15.612,4,2,1,1,1,-2,6,8
2025-05-18 17:47:15.623,4,2,1,1,1,-2,6,8
2025-05-18 17:47:15.634,-1,-1,0,-1,1,2,3,1
2025-05-18 17:47:15.647,-1,-1,0,-1,1,2,3,1
2025-05-18 17:47:15.656,-8,-4,-4,-1,-1,3,1,-13
2025-05-18 17:47:15.669,13,4,1,0,6,-2,-1,3
2025-05-18 17:47:15.681,2,0,1,-1,-4,-4,-8,2
2025-05-18 17:47:15.691,2,-3,-3,-2,0,-1,1,10
2025-05-18 17:47:15.702,2,-3,-3,-2,0,-1,1,10
2025-05-18 17:47:15.713,-9,-2,-2,-1,-3,-2,-10,-20
2025-05-18 17:47:15.723,-9,-2,-2,-1,-3,-2,-10,-20
2025-05-18 17:47:15.734,-10,-1,0,0,0,0,-6,-2
2025-05-18 17:47:15.746,-3,2,1,-1,-13,0,-3,-12
2025-05-18 17:47:15.756,19,-2,-1,0,-2,-2,1,-4
2025-05-18 17:47:15.767,-22,-9,-4,-2,3,4,2,-10
2025-05-18 17:47:15.778,18,3,2,3,6,5,5,0
2025-05-18 17:47:15.789,8,4,-1,-1,0,-11,-3,-3
2025-05-18 17:47:15.799,0,-2,-2,-3,-1,-4,-8,-2
2025-05-18 17:47:15.811,0,3,0,1,3,-4,3,0
2025-05-18 17:47:15.822,3,-1,-1,-1,-5,-1,1,15
2025-05-18 17:47:15.833,-27,-9,-4,-3,-1,0,1,22
2025-05-18 17:47:15.842,-27,-9,-4,-3,-1,0,1,22
2025-05-18 17:47:15.854,-13,1,1,1,-1,-2,0,0
2025-05-18 17:47:15.865,1,-5,-4,-4,-2,-1,10,19
2025-05-18 17:47:15.877,-4,2,0,-1,1,-1,3,-3
2025-05-18 17:47:15.888,4,0,1,-2,-1,-6,4,-11
2025-05-18 17:47:15.898,4,0,1,-2,-1,-6,4,-11
2025-05-18 17:47:15.910,15,-1,-2,0,4,5,-7,-2
2025-05-18 17:47:15.921,15,-1,-2,0,4,5,-7,-2
2025-05-18 17:47:15.932,3,-2,-2,0,-6,1,-5,-1
2025-05-18 17:47:15.943,3,-2,-2,0,-6,1,-5,-1
2025-05-18 17:47:15.954,3,-2,1,-1,-1,5,-1,-8
2025-05-18 17:47:15.965,3,-2,1,-1,-1,5,-1,-8
2025-05-18 17:47:15.976,4,1,-1,0,0,-1,-5,3
2025-05-18 17:47:15.987,0,-2,1,0,1,7,-5,-15
2025-05-18 17:47:15.999,13,2,2,2,1,0,-1,0
2025-05-18 17:47:16.009,-5,-1,-1,3,0,3,-1,-19
2025-05-18 17:47:16.020,-5,-1,-1,3,0,3,-1,-19
2025-05-18 17:47:16.032,-9,-3,1,0,-1,-4,3,2
2025-05-18 17:47:16.042,-9,-3,1,0,-1,-4,3,2
2025-05-18 17:47:16.053,0,-4,-4,-2,-1,-2,6,15
2025-05-18 17:47:16.065,0,-4,-4,-2,-1,-2,6,15
2025-05-18 17:47:16.076,5,-4,-1,-3,3,6,-2,4
2025-05-18 17:47:16.087,5,-4,-1,-3,3,6,-2,4
2025-05-18 17:47:16.098,10,0,-1,1,2,6,17,10
2025-05-18 17:47:16.109,10,0,-1,1,2,6,17,10
2025-05-18 17:47:16.120,-7,-3,-4,-5,-2,-4,-10,-8
2025-05-18 17:47:16.130,-7,0,1,-1,3,-4,-14,-3
2025-05-18 17:47:16.142,-7,0,1,-1,3,-4,-14,-3
2025-05-18 17:47:16.153,-5,1,-1,-2,-6,-2,3,1
2025-05-18 17:47:16.163,-5,1,-1,-2,-6,-2,3,1
2025-05-18 17:47:16.175,-17,-4,0,3,2,0,-6,-18
2025-05-18 17:47:16.186,-17,-4,0,3,2,0,-6,-18
2025-05-18 17:47:16.199,0,-3,-1,-2,-1,-5,-1,-3
2025-05-18 17:47:16.210,-3,2,1,1,2,4,3,34
2025-05-18 17:47:16.221,-3,2,1,1,2,4,3,34
2025-05-18 17:47:16.232,-10,-2,-4,-3,-3,1,3,-5
2025-05-18 17:47:16.243,-6,0,0,-1,-5,-1,3,-10
2025-05-18 17:47:16.254,10,1,-1,1,2,-3,1,2
2025-05-18 17:47:16.267,10,1,-1,1,2,-3,1,2
2025-05-18 17:47:16.277,-4,-5,-3,-4,-3,-6,-1,-14
2025-05-18 17:47:16.288,-4,-5,-3,-4,-3,-6,-1,-14
2025-05-18 17:47:16.299,5,0,0,-1,-7,-2,0,-7
2025-05-18 17:47:16.310,0,0,2,0,1,-2,0,-8
2025-05-18 17:47:16.321,0,0,2,0,1,-2,0,-8
2025-05-18 17:47:16.333,9,1,-3,0,3,-1,-1,10
2025-05-18 17:47:16.344,9,1,-3,0,3,-1,-1,10
2025-05-18 17:47:16.355,9,-2,-2,-2,0,2,2,29
2025-05-18 17:47:16.366,5,1,-1,-1,-1,1,2,0
2025-05-18 17:47:16.378,-7,-2,0,-1,0,4,0,3
2025-05-18 17:47:16.388,-6,0,2,1,1,-2,-6,1
2025-05-18 17:47:16.400,4,3,2,-1,4,8,6,-7
2025-05-18 17:47:16.411,4,3,2,-1,4,8,6,-7
2025-05-18 17:47:16.422,-3,-2,1,0,-2,-2,-9,-15
2025-05-18 17:47:16.433,-6,-7,-4,-4,-5,0,-7,-4
2025-05-18 17:47:16.444,-6,-7,-4,-4,-5,0,-7,-4
2025-05-18 17:47:16.454,-8,-1,-1,0,0,-5,1,-14
2025-05-18 17:47:16.466,-8,-1,-1,0,0,-5,1,-14
2025-05-18 17:47:16.476,7,1,0,1,2,3,0,17
2025-05-18 17:47:16.486,22,5,3,1,-13,-3,1,7
2025-05-18 17:47:16.498,-5,-2,0,1,-1,1,-2,-2
2025-05-18 17:47:16.509,1,1,0,-1,-3,-6,-2,11
2025-05-18 17:47:16.521,1,1,0,-1,-3,-6,-2,11
2025-05-18 17:47:16.533,-4,1,-1,-2,-4,2,-3,-9
2025-05-18 17:47:16.543,1,0,-1,-1,0,-1,-9,-4
2025-05-18 17:47:16.555,-18,-7,-3,2,3,-1,7,7
2025-05-18 17:47:16.566,-18,-7,-3,2,3,-1,7,7
2025-05-18 17:47:16.578,2,3,0,-1,9,1,2,7
2025-05-18 17:47:16.588,2,3,0,-1,9,1,2,7
2025-05-18 17:47:16.600,2,-3,-1,-1,-4,-1,-4,21
2025-05-18 17:47:16.611,0,-1,-3,-3,-6,2,6,-7
2025-05-18 17:47:16.623,0,-1,-3,-3,-6,2,6,-7
2025-05-18 17:47:16.634,7,3,2,-1,1,1,5,5
2025-05-18 17:47:16.645,7,3,2,-1,1,1,5,5
2025-05-18 17:47:16.656,-4,-2,-1,0,2,-1,3,-45
2025-05-18 17:47:16.668,15,-3,-5,-2,-2,2,-8,-2
2025-05-18 17:47:16.678,0,-1,-2,0,-4,-2,0,3
2025-05-18 17:47:16.690,20,1,-1,0,0,3,-5,6
2025-05-18 17:47:16.700,20,1,-1,0,0,3,-5,6
2025-05-18 17:47:16.711,20,1,-1,0,0,3,-5,6
2025-05-18 17:47:16.722,12,1,-1,-3,-2,1,3,16
2025-05-18 17:47:16.734,6,3,2,1,0,3,5,-20
2025-05-18 17:47:16.745,6,3,2,1,0,3,5,-20
2025-05-18 17:47:16.756,-13,-3,-1,-1,-5,-3,-4,6
2025-05-18 17:47:16.767,-13,-3,-1,-1,-5,-3,-4,6
2025-05-18 17:47:16.779,-5,-1,-1,1,-1,2,-3,7
2025-05-18 17:47:16.790,-4,0,-2,0,8,2,-1,-25
2025-05-18 17:47:16.803,-4,-3,0,0,-1,-7,-7,-3
2025-05-18 17:47:16.814,-2,-1,-1,-2,3,-2,0,12
2025-05-18 17:47:16.826,-2,-1,-1,-2,3,-2,0,12
2025-05-18 17:47:16.837,-6,0,-2,-1,-4,-1,3,12
2025-05-18 17:47:16.847,-3,-2,2,2,5,0,-2,7
2025-05-18 17:47:16.859,-12,-4,-1,0,3,4,6,2
2025-05-18 17:47:16.871,5,-2,-1,-2,-7,-3,11,13
2025-05-18 17:47:16.881,5,-2,-1,-2,-7,-3,11,13
2025-05-18 17:47:16.891,5,-2,-1,-2,-7,-3,11,13
2025-05-18 17:47:16.903,2,-3,-2,-1,-1,4,-8,-20
2025-05-18 17:47:16.914,13,-2,1,0,9,0,-2,3
2025-05-18 17:47:16.925,13,-2,1,0,9,0,-2,3
2025-05-18 17:47:16.935,-5,0,0,-2,-13,-5,-14,-21
2025-05-18 17:47:16.947,-5,0,0,-2,-13,-5,-14,-21
2025-05-18 17:47:16.958,14,-1,1,2,0,0,-4,-9
2025-05-18 17:47:16.969,-6,-2,-1,-1,-1,-6,2,15
2025-05-18 17:47:16.979,15,3,3,1,1,0,-1,1
2025-05-18 17:47:16.989,-14,-3,-2,0,5,-5,-2,-33
2025-05-18 17:47:17.000,-14,-3,-2,0,5,-5,-2,-33
2025-05-18 17:47:17.011,-14,-3,-2,0,5,-5,-2,-33
2025-05-18 17:47:17.021,-8,-3,-3,-2,5,-2,0,17
2025-05-18 17:47:17.034,-8,-3,-3,-2,5,-2,0,17
2025-05-18 17:47:17.043,-8,-4,-1,1,4,-1,2,8
2025-05-18 17:47:17.055,-8,-7,-2,-2,-9,0,5,12
2025-05-18 17:47:17.066,-8,-7,-2,-2,-9,0,5,12
2025-05-18 17:47:17.078,5,-1,-4,-1,-4,4,-3,-23
2025-05-18 17:47:17.089,5,-1,-4,-1,-4,4,-3,-23
2025-05-18 17:47:17.100,16,2,-1,-1,0,-1,-6,12
2025-05-18 17:47:17.110,-29,-4,-1,0,-2,-11,0,-2
2025-05-18 17:47:17.123,-29,-4,-1,0,-2,-11,0,-2
2025-05-18 17:47:17.134,5,3,1,0,2,4,9,22
2025-05-18 17:47:17.144,5,3,1,0,2,4,9,22
2025-05-18 17:47:17.157,-2,-2,-2,-3,-3,-3,-5,-16
2025-05-18 17:47:17.167,-2,-2,-2,-3,-3,-3,-5,-16
2025-05-18 17:47:17.179,0,1,-1,-2,-2,-3,5,-3
2025-05-18 17:47:17.189,0,1,-1,-2,-2,-3,5,-3
2025-05-18 17:47:17.200,5,0,-1,-5,-8,-2,1,-11
2025-05-18 17:47:17.212,5,0,-1,-5,-8,-2,1,-11
2025-05-18 17:47:17.223,-4,-4,-3,2,4,5,-6,-12
2025-05-18 17:47:17.234,-1,0,3,0,1,0,-3,-14
2025-05-18 17:47:17.245,-1,0,3,0,1,0,-3,-14
2025-05-18 17:47:17.256,11,3,0,-2,0,1,4,21
2025-05-18 17:47:17.268,11,3,0,-2,0,1,4,21
2025-05-18 17:47:17.278,0,-1,-1,0,-1,3,2,23
2025-05-18 17:47:17.289,0,-1,-1,0,-1,3,2,23
2025-05-18 17:47:17.299,-4,-5,-2,0,10,-5,-3,-2
2025-05-18 17:47:17.311,-4,-5,-2,0,10,-5,-3,-2
2025-05-18 17:47:17.322,9,0,0,0,-1,4,5,17
2025-05-18 17:47:17.333,9,0,0,0,-1,4,5,17
2025-05-18 17:47:17.343,-10,-5,-3,-2,-1,-2,-1,-22
2025-05-18 17:47:17.354,10,-4,0,1,1,-7,-2,-11
2025-05-18 17:47:17.364,10,-4,0,1,1,-7,-2,-11
2025-05-18 17:47:17.375,-12,-1,0,-1,-4,4,-3,-17
2025-05-18 17:47:17.387,-12,-1,0,-1,-4,4,-3,-17
2025-05-18 17:47:17.398,-6,-3,-3,0,-3,-2,-6,-6
2025-05-18 17:47:17.409,-4,-5,-3,0,2,2,6,4
2025-05-18 17:47:17.420,-1,-3,-2,-4,-7,2,1,12
2025-05-18 17:47:17.431,-1,-3,-2,-4,-7,2,1,12
2025-05-18 17:47:17.442,4,5,4,0,-5,-6,2,19
2025-05-18 17:47:17.453,4,5,4,0,-5,-6,2,19
2025-05-18 17:47:17.464,-29,-8,-3,0,1,1,5,6
2025-05-18 17:47:17.473,23,1,0,1,-5,-2,-6,-2
2025-05-18 17:47:17.485,23,1,0,1,-5,-2,-6,-2
2025-05-18 17:47:17.496,-3,0,1,1,-1,1,4,-4
2025-05-18 17:47:17.507,-3,0,1,1,-1,1,4,-4
2025-05-18 17:47:17.517,7,-3,0,0,4,-2,-10,-34
2025-05-18 17:47:17.526,7,-3,0,0,4,-2,-10,-34
2025-05-18 17:47:17.537,1,-2,-4,-1,-1,4,-3,21
2025-05-18 17:47:17.547,1,-2,-4,-1,-1,4,-3,21
2025-05-18 17:47:17.558,5,3,1,0,7,5,10,19
2025-05-18 17:47:17.570,5,3,1,0,7,5,10,19
2025-05-18 17:47:17.581,0,-2,-2,-2,-1,-3,1,2
2025-05-18 17:47:17.592,1,-1,0,-2,0,0,-6,-4
2025-05-18 17:47:17.601,1,-1,0,-2,0,0,-6,-4
2025-05-18 17:47:17.613,5,1,1,-1,3,-2,3,-10
2025-05-18 17:47:17.624,11,4,-1,0,-2,-4,-2,3
2025-05-18 17:47:17.634,11,4,-1,0,-2,-4,-2,3
2025-05-18 17:47:17.646,-3,0,0,-3,-16,-4,-9,-2
2025-05-18 17:47:17.656,-8,-2,1,1,6,-1,5,1
2025-05-18 17:47:17.667,-8,-2,1,1,6,-1,5,1
2025-05-18 17:47:17.678,-5,-3,-1,1,-2,0,-3,-12
2025-05-18 17:47:17.689,-5,-3,-1,1,-2,0,-3,-12
2025-05-18 17:47:17.699,5,1,-1,0,-1,-2,3,11
2025-05-18 17:47:17.710,16,-2,-2,-1,-4,3,3,7
2025-05-18 17:47:17.720,-2,-2,-1,0,-2,1,4,10
2025-05-18 17:47:17.731,-2,-2,-1,0,-2,1,4,10
2025-05-18 17:47:17.743,5,-2,-4,-2,1,2,3,12
2025-05-18 17:47:17.754,5,-2,-4,-2,1,2,3,12
2025-05-18 17:47:17.765,3,-1,0,-1,2,-4,-6,7
2025-05-18 17:47:17.776,-2,-3,-1,0,3,-9,-9,-14
2025-05-18 17:47:17.787,-7,-3,-1,-2,-5,-8,-11,-22
2025-05-18 17:47:17.797,0,-6,-2,-1,-1,0,0,-29
2025-05-18 17:47:17.808,0,-6,-2,-1,-1,0,0,-29
2025-05-18 17:47:17.819,-7,2,0,-2,-4,1,-7,-5
2025-05-18 17:47:17.830,25,4,0,1,2,3,5,14
2025-05-18 17:47:17.841,-5,-3,-1,-1,3,0,2,-3
2025-05-18 17:47:17.851,-5,-3,-1,-1,3,0,2,-3
2025-05-18 17:47:17.863,1,-4,-2,-3,5,-10,-3,-4
2025-05-18 17:47:17.872,1,-4,-2,-3,5,-10,-3,-4
2025-05-18 17:47:17.884,-4,-4,-5,-3,8,11,2,7
2025-05-18 17:47:17.894,3,3,2,0,-4,-2,3,15
2025-05-18 17:47:17.905,11,4,1,0,-8,-7,-1,24
2025-05-18 17:47:17.917,-17,-4,0,0,6,2,-3,-3
2025-05-18 17:47:17.927,-17,-4,0,0,6,2,-3,-3
2025-05-18 17:47:17.938,-8,-4,-2,1,-3,-1,-5,-12
2025-05-18 17:47:17.950,-8,-4,-2,1,-3,-1,-5,-12
2025-05-18 17:47:17.962,-7,2,2,2,5,-4,-2,10
2025-05-18 17:47:17.972,-2,-2,-4,-1,1,-2,-7,-29
2025-05-18 17:47:17.983,12,3,2,1,3,2,-3,-12
2025-05-18 17:47:17.994,12,3,2,1,3,2,-3,-12
2025-05-18 17:47:18.006,-4,-6,-4,-3,-6,-1,-4,-3
2025-05-18 17:47:18.017,-10,3,2,-1,-3,-2,0,-6
2025-05-18 17:47:18.027,12,2,0,-3,-9,0,14,21
2025-05-18 17:47:18.039,-6,-4,-1,-1,2,3,-7,-17
2025-05-18 17:47:18.050,-6,-4,-1,-1,2,3,-7,-17
2025-05-18 17:47:18.060,-12,-3,-1,-5,-5,-6,-3,-4
2025-05-18 17:47:18.073,-12,-3,-1,-5,-5,-6,-3,-4
2025-05-18 17:47:18.082,6,1,0,1,1,-4,-10,-21
2025-05-18 17:47:18.094,-21,-4,-2,-2,-6,-5,5,9
2025-05-18 17:47:18.104,2,1,0,4,-2,3,1,-5
2025-05-18 17:47:18.116,1,-1,-2,0,0,1,1,0
2025-05-18 17:47:18.128,1,-1,-2,0,0,1,1,0
2025-05-18 17:47:18.139,7,-4,-4,-4,-15,-4,-4,0
2025-05-18 17:47:18.150,7,-4,-4,-4,-15,-4,-4,0
2025-05-18 17:47:18.161,-30,-5,-3,-2,3,-2,4,3
2025-05-18 17:47:18.171,-30,-5,-3,-2,3,-2,4,3
2025-05-18 17:47:18.182,1,-1,-4,-3,-10,-4,-1,-28
2025-05-18 17:47:18.193,1,-1,-4,-3,-10,-4,-1,-28
2025-05-18 17:47:18.205,-2,-6,-4,-1,14,-4,-3,8
2025-05-18 17:47:18.216,-5,1,0,1,9,6,-1,1
2025-05-18 17:47:18.227,7,0,-4,0,-1,3,3,15
2025-05-18 17:47:18.237,-1,0,2,0,-11,9,6,-24
2025-05-18 17:47:18.249,-1,0,2,0,-11,9,6,-24
2025-05-18 17:47:18.261,1,-2,-1,-1,2,1,-4,-6
2025-05-18 17:47:18.273,-10,-1,-2,-2,-4,-5,-6,-22
2025-05-18 17:47:18.283,-3,-1,2,0,10,2,-16,-7
2025-05-18 17:47:18.294,-1,-3,-3,-3,2,8,9,10
2025-05-18 17:47:18.304,9,2,1,0,-1,-5,4,15
2025-05-18 17:47:18.314,9,2,1,0,-1,-5,4,15
2025-05-18 17:47:18.326,-3,3,5,4,7,-2,1,19
2025-05-18 17:47:18.335,6,1,-1,-3,1,-5,-6,26
2025-05-18 17:47:18.347,-1,-5,-3,1,0,2,2,8
2025-05-18 17:47:18.358,-3,-3,0,-3,-3,-1,2,1
2025-05-18 17:47:18.368,-3,-3,0,-3,-3,-1,2,1
2025-05-18 17:47:18.379,-3,-2,-2,-4,-4,-3,0,23
2025-05-18 17:47:18.390,-3,-2,-2,-4,-4,-3,0,23
2025-05-18 17:47:18.401,-5,1,1,-1,1,1,-1,-3
2025-05-18 17:47:18.412,-5,1,1,-1,1,1,-1,-3
2025-05-18 17:47:18.424,12,-4,-4,-5,-13,-6,-11,-3
2025-05-18 17:47:18.435,12,-4,-4,-5,-13,-6,-11,-3
2025-05-18 17:47:18.445,4,-3,-2,-1,-4,-4,-3,0
2025-05-18 17:47:18.457,7,0,-1,-1,6,-2,-7,-10
2025-05-18 17:47:18.467,-8,-5,-2,-3,-2,3,4,-38
2025-05-18 17:47:18.478,-8,-3,0,1,-3,-3,0,-3
2025-05-18 17:47:18.489,-8,-3,0,1,-3,-3,0,-3
2025-05-18 17:47:18.500,11,0,-3,0,0,-6,5,9
2025-05-18 17:47:18.512,-9,0,0,0,-3,-11,-5,10
2025-05-18 17:47:18.522,3,-1,0,-2,-4,-1,0,3
2025-05-18 17:47:18.533,3,-1,0,-2,-4,-1,0,3
2025-05-18 17:47:18.544,-19,-9,-6,-2,-2,-3,5,8
2025-05-18 17:47:18.554,-19,-9,-6,-2,-2,-3,5,8
2025-05-18 17:47:18.567,-1,1,-1,1,4,2,-12,-8
2025-05-18 17:47:18.577,-7,1,1,2,8,-10,-4,-10
2025-05-18 17:47:18.588,-4,0,-2,-1,-1,-9,-11,-5
2025-05-18 17:47:18.598,3,0,1,-1,1,3,-1,1
2025-05-18 17:47:18.611,7,3,3,1,-1,10,4,-14
2025-05-18 17:47:18.622,6,1,-1,-3,-4,3,-4,7
2025-05-18 17:47:18.632,-6,-2,-4,-5,0,0,0,8
2025-05-18 17:47:18.643,3,-3,-1,-1,-5,-6,7,29
2025-05-18 17:47:18.654,3,-3,-1,-1,-5,-6,7,29
2025-05-18 17:47:18.664,-4,-4,-5,-3,4,-1,-7,-31
2025-05-18 17:47:18.676,-4,-4,-5,-3,4,-1,-7,-31
2025-05-18 17:47:18.686,14,0,-4,-4,0,15,5,17
2025-05-18 17:47:18.697,-17,-2,-2,-2,-1,-5,-5,-47
2025-05-18 17:47:18.708,-5,0,1,-1,-10,-13,-12,-4
2025-05-18 17:47:18.718,-4,-4,-2,-1,-2,-4,-2,0
2025-05-18 17:47:18.728,-4,-4,-2,-1,-2,-4,-2,0
2025-05-18 17:47:18.739,-3,-4,-1,-1,2,-3,-1,10
2025-05-18 17:47:18.749,-3,-4,-1,-1,2,-3,-1,10
2025-05-18 17:47:18.761,10,4,2,2,0,-2,-1,9
2025-05-18 17:47:18.771,10,4,2,2,0,-2,-1,9
2025-05-18 17:47:18.782,-2,-2,-3,-1,4,-7,0,-3
2025-05-18 17:47:18.791,-2,-2,-3,-1,4,-7,0,-3
2025-05-18 17:47:18.802,0,-1,-1,-2,5,0,-1,10
2025-05-18 17:47:18.812,-3,-2,-2,-5,-8,2,-6,-6
2025-05-18 17:47:18.824,-6,0,-1,-1,-2,1,1,1
2025-05-18 17:47:18.835,-49,-5,1,1,-4,-8,-5,-16
2025-05-18 17:47:18.845,-11,-7,-6,-3,-4,-5,-6,-23
2025-05-18 17:47:18.856,-11,-7,-6,-3,-4,-5,-6,-23
2025-05-18 17:47:18.868,-5,-4,-2,0,3,-1,16,21
2025-05-18 17:47:18.878,26,7,0,-1,2,-1,0,-2
2025-05-18 17:47:18.889,4,-1,0,-2,1,5,-3,-1
2025-05-18 17:47:18.899,2,1,0,1,-9,-3,3,25
2025-05-18 17:47:18.912,2,1,0,1,-9,-3,3,25
2025-05-18 17:47:18.924,0,4,0,-1,1,-9,-9,-7
2025-05-18 17:47:18.934,0,4,0,-1,1,-9,-9,-7
2025-05-18 17:47:18.946,4,-1,0,-2,-15,0,3,6
2025-05-18 17:47:18.956,3,-2,0,1,5,0,-6,-11
2025-05-18 17:47:18.968,3,-2,0,1,5,0,-6,-11
2025-05-18 17:47:18.978,-11,-5,-3,0,-7,-18,-6,-4
2025-05-18 17:47:18.989,-11,-5,-3,0,-7,-18,-6,-4
2025-05-18 17:47:19.000,-7,3,2,1,2,-3,-1,7
2025-05-18 17:47:19.009,-2,-3,-2,2,4,1,-12,-41
2025-05-18 17:47:19.022,2,-2,-5,-5,-7,2,-6,-11
2025-05-18 17:47:19.031,2,-2,-5,-5,-7,2,-6,-11
2025-05-18 17:47:19.043,-8,-12,-6,-4,0,-4,-6,-12
2025-05-18 17:47:19.054,-8,-12,-6,-4,0,-4,-6,-12
2025-05-18 17:47:19.064,0,2,0,-1,-6,2,0,11
2025-05-18 17:47:19.075,12,0,-1,0,-1,-4,5,27
2025-05-18 17:47:19.087,-7,-1,-2,-1,-3,2,3,5
2025-05-18 17:47:19.098,6,2,-2,-2,-8,-2,4,-4
2025-05-18 17:47:19.109,18,1,0,-1,0,0,2,-22
2025-05-18 17:47:19.120,-3,0,-1,0,0,1,-5,-29
2025-05-18 17:47:19.131,-15,-1,-1,-2,2,0,4,-2
2025-05-18 17:47:19.142,-3,-3,-2,-1,-6,0,2,12
2025-05-18 17:47:19.153,-3,-3,-2,-1,-6,0,2,12
2025-05-18 17:47:19.164,-9,0,0,0,2,3,-4,4
2025-05-18 17:47:19.174,-9,0,0,0,2,3,-4,4
2025-05-18 17:47:19.186,-6,-4,-2,-1,-4,-4,-8,-21
2025-05-18 17:47:19.196,16,-2,-4,-3,6,-3,6,-7
2025-05-18 17:47:19.208,7,3,-1,0,-2,-3,0,12
2025-05-18 17:47:19.218,5,-2,-1,0,9,3,2,6
2025-05-18 17:47:19.230,5,-2,-1,0,9,3,2,6
2025-05-18 17:47:19.241,12,0,-2,-3,3,9,-11,-5
2025-05-18 17:47:19.253,12,0,-2,-3,3,9,-11,-5
2025-05-18 17:47:19.263,8,1,-2,-1,1,-13,2,34
2025-05-18 17:47:19.275,8,1,-2,-1,1,-13,2,34
2025-05-18 17:47:19.286,1,-1,0,0,-1,-2,-3,15
2025-05-18 17:47:19.298,1,-1,0,0,-1,-2,-3,15
2025-05-18 17:47:19.308,-24,-6,-2,-2,-3,-6,-4,6
2025-05-18 17:47:19.319,14,-2,0,-2,0,-7,-4,-3
2025-05-18 17:47:19.329,2,-5,-3,-3,-8,2,-5,-19
2025-05-18 17:47:19.340,-12,-2,1,-1,-3,-5,-2,-14
2025-05-18 17:47:19.351,-12,-2,1,-1,-3,-5,-2,-14
2025-05-18 17:47:19.362,26,3,1,2,3,3,0,21
2025-05-18 17:47:19.372,26,3,1,2,3,3,0,21
2025-05-18 17:47:19.384,0,1,-1,-1,2,-3,6,-8
2025-05-18 17:47:19.396,0,1,-1,-1,2,-3,6,-8
2025-05-18 17:47:19.406,-7,-2,-2,-3,0,3,2,11
2025-05-18 17:47:19.416,-7,-2,-2,-3,0,3,2,11
2025-05-18 17:47:19.428,-4,1,-1,-1,1,0,2,-9
2025-05-18 17:47:19.439,27,2,-1,-4,3,7,7,14
2025-05-18 17:47:19.450,-1,0,-2,-1,0,-3,-7,-21
2025-05-18 17:47:19.462,-1,-3,-3,-3,-4,-4,-2,-7
2025-05-18 17:47:19.473,-1,-3,-3,-3,-4,-4,-2,-7
2025-05-18 17:47:19.483,2,1,0,0,-1,-6,-2,18
2025-05-18 17:47:19.495,-6,1,0,2,7,1,5,9
2025-05-18 17:47:19.506,3,4,-2,1,1,0,-5,-12
2025-05-18 17:47:19.515,3,4,-2,1,1,0,-5,-12
2025-05-18 17:47:19.526,0,-3,-2,-2,-7,-5,-5,-6
2025-05-18 17:47:19.536,0,-3,-2,-2,-7,-5,-5,-6
2025-05-18 17:47:19.548,2,-4,-3,-2,-2,8,12,4
2025-05-18 17:47:19.559,-5,-1,0,0,0,-6,4,17
2025-05-18 17:47:19.570,-3,-3,-2,-3,-6,-3,-6,-28
2025-05-18 17:47:19.581,-19,-9,-2,1,-3,-2,-1,5
2025-05-18 17:47:19.592,-19,-9,-2,1,-3,-2,-1,5
2025-05-18 17:47:19.604,11,4,1,-2,-1,-1,5,15
2025-05-18 17:47:19.614,-9,-4,-2,-4,-11,-10,-7,-3
2025-05-18 17:47:19.625,-3,-2,-4,-3,-6,-12,0,9
2025-05-18 17:47:19.635,-3,-2,-4,-3,-6,-12,0,9
2025-05-18 17:47:19.647,-3,3,2,-2,-10,-3,-3,-2
2025-05-18 17:47:19.658,-3,3,2,-2,-10,-3,-3,-2
2025-05-18 17:53:29.717,-6,-10,-4,-2,-5,-1,-1,2
2025-05-18 17:53:29.727,-6,-10,-4,-2,-5,-1,-1,2
2025-05-18 17:53:29.739,-4,10,-1,-1,-2,-2,-3,-3
2025-05-18 17:53:29.750,2,-8,-2,0,0,-2,-2,0
2025-05-18 17:53:29.762,0,6,-1,0,0,-1,-2,-1
2025-05-18 17:53:29.772,-1,-2,1,-1,-1,-2,-1,-2
2025-05-18 17:53:29.784,-1,-2,1,-1,-1,-2,-1,-2
2025-05-18 17:53:29.795,-4,-2,0,-1,-1,-1,-1,-2
2025-05-18 17:53:29.805,5,3,-1,0,-2,1,-2,-1
2025-05-18 17:53:29.817,-5,-1,-2,-1,-2,-1,-2,-4
2025-05-18 17:53:29.827,5,2,1,-2,-1,0,-1,1
2025-05-18 17:53:29.838,13,-3,-1,-1,-2,-4,-1,-4
2025-05-18 17:53:29.850,10,1,-1,0,-1,-1,-1,2
2025-05-18 17:53:29.862,4,5,-1,-1,-1,-2,0,3
2025-05-18 17:53:29.872,4,5,-1,-1,-1,-2,0,3
2025-05-18 17:53:29.882,-3,-3,-2,-2,-3,-3,-1,-2
2025-05-18 17:53:29.893,-5,-8,-4,-3,-1,-1,-2,-4
2025-05-18 17:53:29.903,-5,-8,-4,-3,-1,-1,-2,-4
2025-05-18 17:53:29.914,-4,1,0,0,0,0,-2,-2
2025-05-18 17:53:29.925,-4,1,0,0,0,0,-2,-2
2025-05-18 17:53:29.936,-15,-3,-1,-1,-1,-1,-2,-2
2025-05-18 17:53:29.947,-15,-3,-1,-1,-1,-1,-2,-2
2025-05-18 17:53:29.959,-2,1,0,0,-2,-2,-2,-1
2025-05-18 17:53:29.969,-2,1,0,0,-2,-2,-2,-1
2025-05-18 17:53:29.981,0,5,-2,-3,-3,-2,-1,-6
2025-05-18 17:53:29.993,0,5,-2,-3,-3,-2,-1,-6
2025-05-18 17:53:30.003,2,0,-4,-2,-1,-1,0,1
2025-05-18 17:53:30.015,-2,2,0,0,-1,-1,-2,0
2025-05-18 17:53:30.026,-2,2,0,0,-1,-1,-2,0
2025-05-18 17:53:30.035,0,-4,-1,0,3,-3,0,-2
2025-05-18 17:53:30.047,0,-4,-1,0,3,-3,0,-2
2025-05-18 17:53:30.059,-2,-6,-2,-1,-2,-1,1,-3
2025-05-18 17:53:30.070,-1,-2,1,1,0,0,0,1
2025-05-18 17:53:30.082,5,1,0,-1,-2,-1,0,1
2025-05-18 17:53:30.092,-3,-3,1,0,-1,-3,0,-1
2025-05-18 17:53:30.103,-3,-3,1,0,-1,-3,0,-1
2025-05-18 17:53:30.113,7,-1,-2,-1,-1,-1,0,0
2025-05-18 17:53:30.124,-3,2,-3,-2,-1,-1,-1,-3
2025-05-18 17:53:30.136,-8,-1,-2,-2,-3,-1,1,-4
2025-05-18 17:53:30.147,-8,-1,-2,-2,-3,-1,1,-4
2025-05-18 17:53:30.157,-11,-4,-1,-2,-1,0,-3,-3
2025-05-18 17:53:30.168,-11,-4,-1,-2,-1,0,-3,-3
2025-05-18 17:53:30.178,-21,-8,0,-1,-1,-2,-2,-10
2025-05-18 17:53:30.187,-3,-1,2,0,-1,0,-2,1
2025-05-18 17:53:30.200,6,-2,2,-3,-3,0,-1,0
2025-05-18 17:53:30.211,4,-4,-7,-1,-1,0,0,-1
2025-05-18 17:53:30.221,-2,-7,-5,1,2,1,2,7
2025-05-18 17:53:30.233,1,-4,2,-2,-2,0,-1,2
2025-05-18 17:53:30.243,5,-1,1,-2,-3,-2,-1,-4
2025-05-18 17:53:30.254,4,5,-8,0,0,-3,-5,-14
2025-05-18 17:53:30.265,4,5,-8,0,0,-3,-5,-14
2025-05-18 17:53:30.276,31,24,5,-4,-3,-1,0,8
2025-05-18 17:53:30.286,31,24,5,-4,-3,-1,0,8
2025-05-18 17:53:30.296,-18,-2,-2,0,-2,0,-2,-3
2025-05-18 17:53:30.307,25,13,7,-2,-1,-1,0,2
2025-05-18 17:53:30.317,3,14,-12,-1,-2,-2,0,2
2025-05-18 17:53:30.329,3,14,-12,-1,-2,-2,0,2
2025-05-18 17:53:30.339,-1,-10,3,-1,-2,-1,-2,-10
2025-05-18 17:53:30.349,-1,-10,3,-1,-2,-1,-2,-10
2025-05-18 17:53:30.361,4,-8,1,0,-3,1,3,11
2025-05-18 17:53:30.372,-35,-68,-18,-6,-4,-2,-6,-9
2025-05-18 17:53:30.384,-6,-4,3,0,0,1,5,30
2025-05-18 17:53:30.395,2,17,1,-2,-2,-2,-2,-5
2025-05-18 17:53:30.406,2,17,1,-2,-2,-2,-2,-5
2025-05-18 17:53:30.417,5,5,14,0,1,-2,-1,-2
2025-05-18 17:53:30.427,-12,-31,-14,-2,-1,0,-4,-19
2025-05-18 17:53:30.439,-18,-1,-3,-1,-1,-3,-4,-7
2025-05-18 17:53:30.450,-18,-1,-3,-1,-1,-3,-4,-7
2025-05-18 17:53:30.461,-25,-11,-6,-2,-3,1,-3,-30
2025-05-18 17:53:30.472,-25,-11,-6,-2,-3,1,-3,-30
2025-05-18 17:53:30.483,4,-5,-8,-1,-2,1,4,-6
2025-05-18 17:53:30.494,-8,-5,-1,-3,-3,-2,-5,-27
2025-05-18 17:53:30.505,-12,0,-2,-4,-2,-6,-10,-20
2025-05-18 17:53:30.516,22,8,-6,1,0,0,17,53
2025-05-18 17:53:30.527,22,8,-6,1,0,0,17,53
2025-05-18 17:53:30.537,13,13,6,2,4,3,0,2
2025-05-18 17:53:30.548,-3,-10,6,1,0,0,-12,40
2025-05-18 17:53:30.560,-30,-18,-11,-5,-4,-5,1,16
2025-05-18 17:53:30.570,-16,-6,2,-3,-2,-2,21,-11
2025-05-18 17:53:30.581,-11,-13,-3,-4,-3,-5,-9,69
2025-05-18 17:53:30.591,-11,-13,-3,-4,-3,-5,-9,69
2025-05-18 17:53:30.605,-43,12,-3,-3,0,2,0,-92
2025-05-18 17:53:30.616,4,8,3,4,4,3,0,-63
2025-05-18 17:53:30.627,4,8,3,4,4,3,0,-63
2025-05-18 17:53:30.637,5,17,-8,-5,-7,-8,-3,-28
2025-05-18 17:53:30.649,5,17,-8,-5,-7,-8,-3,-28
2025-05-18 17:53:30.660,31,-34,1,6,1,-2,10,27
2025-05-18 17:53:30.671,21,-4,-1,-2,-1,-1,-4,37
2025-05-18 17:53:30.683,-32,-6,-3,0,2,1,4,10
2025-05-18 17:53:30.693,0,-8,-12,-4,-5,-3,-13,-9
2025-05-18 17:53:30.704,0,-8,-12,-4,-5,-3,-13,-9
2025-05-18 17:53:30.715,15,10,5,0,-2,2,27,34
2025-05-18 17:53:30.725,15,10,5,0,-2,2,27,34
2025-05-18 17:53:30.735,15,10,5,0,-2,2,27,34
2025-05-18 17:53:30.747,17,12,4,3,2,1,-27,1
2025-05-18 17:53:30.756,7,-2,12,4,6,11,19,29
2025-05-18 17:53:30.767,7,-2,12,4,6,11,19,29
2025-05-18 17:53:30.778,-20,-3,-6,-7,-4,-5,5,19
2025-05-18 17:53:30.787,15,-17,2,0,6,14,40,12
2025-05-18 17:53:30.800,19,2,-2,-4,-4,-2,16,23
2025-05-18 17:53:30.810,19,2,-2,-4,-4,-2,16,23
2025-05-18 17:53:30.820,-1,-12,1,4,3,9,1,8
2025-05-18 17:53:30.831,-1,-12,1,4,3,9,1,8
2025-05-18 17:53:30.841,-18,4,-7,-5,-7,-15,-20,-45
2025-05-18 17:53:30.852,-18,4,-7,-5,-7,-15,-20,-45
2025-05-18 17:53:30.862,-6,-10,2,-5,-1,-2,-37,-53
2025-05-18 17:53:30.875,-17,11,-1,1,3,6,8,-128
2025-05-18 17:53:30.886,-17,11,-1,1,3,6,8,-128
2025-05-18 17:53:30.898,34,4,24,-4,-6,-12,-31,3
2025-05-18 17:53:30.909,34,4,24,-4,-6,-12,-31,3
2025-05-18 17:53:30.920,34,-3,-11,7,6,15,51,23
2025-05-18 17:53:30.931,21,30,1,7,5,-2,-4,105
2025-05-18 17:53:30.942,-44,-18,-4,-6,-6,-8,-5,-63
2025-05-18 17:53:30.952,28,15,17,-2,-7,-10,18,-17
2025-05-18 17:53:30.964,11,19,10,-7,-4,-2,-29,123
2025-05-18 17:53:30.975,11,19,10,-7,-4,-2,-29,123
2025-05-18 17:53:30.986,22,-11,-17,-5,-11,-24,-19,35
2025-05-18 17:53:30.997,-73,-22,-18,-8,-14,-26,-4,-99
2025-05-18 17:53:31.008,-73,-22,-18,-8,-14,-26,-4,-99
2025-05-18 17:53:31.019,12,-2,0,-2,1,-2,4,97
2025-05-18 17:53:31.030,12,-2,0,-2,1,-2,4,97
2025-05-18 17:53:31.041,46,31,8,3,8,26,47,-7
2025-05-18 17:53:31.052,-36,-15,-1,4,4,3,-2,42
2025-05-18 17:53:31.063,-28,16,-11,-7,-2,10,71,-40
2025-05-18 17:53:31.075,-18,36,18,7,11,13,-15,-72
2025-05-18 17:53:31.086,-18,36,18,7,11,13,-15,-72
2025-05-18 17:53:31.095,51,0,-3,4,3,9,16,127
2025-05-18 17:53:31.106,-66,-30,-5,-8,-9,-4,-49,24
2025-05-18 17:53:31.119,7,46,17,2,2,-2,33,75
2025-05-18 17:53:31.129,7,46,17,2,2,-2,33,75
2025-05-18 17:53:31.141,-28,-22,-31,3,0,-3,7,-85
2025-05-18 17:53:31.151,-28,-22,-31,3,0,-3,7,-85
2025-05-18 17:53:31.163,10,3,-6,-9,-11,-15,-20,48
2025-05-18 17:53:31.173,46,21,-1,-3,-8,-14,-17,81
2025-05-18 17:53:31.183,16,2,4,9,8,5,10,101
2025-05-18 17:53:31.194,50,-13,-7,1,2,0,-5,25
2025-05-18 17:53:31.205,50,-13,-7,1,2,0,-5,25
2025-05-18 17:53:31.216,-57,6,-4,-1,2,17,4,-128
2025-05-18 17:53:31.227,-72,-52,-1,0,-4,1,-33,-70
2025-05-18 17:53:31.237,-9,11,1,-1,1,-2,-20,-54
2025-05-18 17:53:31.247,-9,11,1,-1,1,-2,-20,-54
2025-05-18 17:53:31.259,93,13,6,3,1,-10,22,127
2025-05-18 17:53:31.269,93,13,6,3,1,-10,22,127
2025-05-18 17:53:31.280,-51,-5,-12,-8,-10,-6,-7,-17
2025-05-18 17:53:31.290,50,16,17,3,-2,-13,2,71
2025-05-18 17:53:31.300,28,-12,1,-6,-3,-2,-4,104
2025-05-18 17:53:31.312,28,-12,1,-6,-3,-2,-4,104
2025-05-18 17:53:31.324,3,-14,-9,0,-2,7,55,28
2025-05-18 17:53:31.334,3,-14,-9,0,-2,7,55,28
2025-05-18 17:53:31.344,24,20,16,-1,-3,-5,-34,-42
2025-05-18 17:53:31.355,-16,-12,-9,-2,-5,-3,21,67
2025-05-18 17:53:31.366,-108,-13,-8,-10,-2,6,-69,-113
2025-05-18 17:53:31.375,2,-21,13,-3,-4,-13,-10,-2
2025-05-18 17:53:31.386,2,-21,13,-3,-4,-13,-10,-2
2025-05-18 17:53:31.397,-14,0,-17,-1,-3,-2,-29,-26
2025-05-18 17:53:31.409,73,28,15,0,-7,-25,-27,81
2025-05-18 17:53:31.421,58,14,14,8,10,9,6,65
2025-05-18 17:53:31.431,58,14,14,8,10,9,6,65
2025-05-18 17:53:31.441,27,29,7,-4,-2,-5,-10,127
2025-05-18 17:53:31.453,27,29,7,-4,-2,-5,-10,127
2025-05-18 17:53:31.464,9,18,-2,-1,2,5,46,-35
2025-05-18 17:53:31.473,-14,-14,-2,-2,-5,-13,-39,-114
2025-05-18 17:53:31.485,-38,-1,-10,-6,-4,-2,20,-58
2025-05-18 17:53:31.495,-35,-24,-4,-1,-3,-3,0,48
2025-05-18 17:53:31.509,-35,-24,-4,-1,-3,-3,0,48
2025-05-18 17:53:31.520,38,-24,2,6,8,13,34,71
2025-05-18 17:53:31.530,21,-3,-5,1,5,-5,-9,39
2025-05-18 17:53:31.540,-16,-43,-2,2,8,14,10,1
2025-05-18 17:53:31.551,-16,-43,-2,2,8,14,10,1
2025-05-18 17:53:31.562,16,15,3,-1,-2,-6,-19,-55
2025-05-18 17:53:31.573,16,15,3,-1,-2,-6,-19,-55
2025-05-18 17:53:31.582,-11,-3,-5,-5,-9,-6,-59,-21
2025-05-18 17:53:31.594,-44,-21,-12,-4,-13,-27,-17,-77
2025-05-18 17:53:31.605,33,26,7,8,7,11,35,53
2025-05-18 17:53:31.616,10,7,-1,-2,-4,-4,7,33
2025-05-18 17:53:31.628,10,7,-1,-2,-4,-4,7,33
2025-05-18 17:53:31.639,6,20,-6,-10,-13,-10,2,-31
2025-05-18 17:53:31.649,-44,-18,-9,-1,0,4,-10,-123
2025-05-18 17:53:31.659,-27,3,3,0,-3,-8,36,32
2025-05-18 17:53:31.670,-27,3,3,0,-3,-8,36,32
2025-05-18 17:53:31.680,-5,9,-7,-3,-3,2,56,70
2025-05-18 17:53:31.692,-5,9,-7,-3,-3,2,56,70
2025-05-18 17:53:31.702,-18,-4,0,-7,-2,-8,-55,-16
2025-05-18 17:53:31.712,-3,-1,-6,2,7,15,27,-17
2025-05-18 17:53:31.722,46,14,0,-3,0,-11,-3,44
2025-05-18 17:53:31.735,57,7,24,8,5,11,13,42
2025-05-18 17:53:31.745,57,7,24,8,5,11,13,42
2025-05-18 17:53:31.757,22,-34,-3,2,-4,-16,-8,48
2025-05-18 17:53:31.768,-18,-16,-4,-5,-6,-8,-22,37
2025-05-18 17:53:31.780,9,14,-2,6,5,-1,10,5
2025-05-18 17:53:31.790,9,14,-2,6,5,-1,10,5
2025-05-18 17:53:31.800,-88,-22,-10,1,2,7,-42,-122
2025-05-18 17:53:31.811,-88,-22,-10,1,2,7,-42,-122
2025-05-18 17:53:31.822,-1,-9,-2,-4,-6,-11,10,47
2025-05-18 17:53:31.833,-1,-9,-2,-4,-6,-11,10,47
2025-05-18 17:53:31.843,-14,-5,-3,-4,-4,2,-5,-3
2025-05-18 17:53:31.854,24,21,12,-1,3,8,33,4
2025-05-18 17:53:31.865,-25,-26,-9,-6,-4,-4,3,83
2025-05-18 17:53:31.876,28,20,4,-1,0,-1,10,-27
2025-05-18 17:53:31.887,28,20,4,-1,0,-1,10,-27
2025-05-18 17:53:31.897,41,-3,5,0,1,6,38,107
2025-05-18 17:53:31.909,1,0,-3,-1,0,6,10,-63
2025-05-18 17:53:31.920,-1,9,0,2,-2,-3,2,-25
2025-05-18 17:53:31.930,-1,9,0,2,-2,-3,2,-25
2025-05-18 17:53:31.940,-46,-7,6,-5,-4,-14,-3,17
2025-05-18 17:53:31.952,-46,-7,6,-5,-4,-14,-3,17
2025-05-18 17:53:31.962,38,17,-10,2,6,13,10,-6
2025-05-18 17:53:31.972,-12,-2,-8,-2,-3,-12,-50,-70
2025-05-18 17:53:31.982,6,-1,5,-3,0,7,10,-70
2025-05-18 17:53:31.995,6,-1,5,-3,0,7,10,-70
2025-05-18 17:53:32.006,-2,-29,-20,6,3,3,8,-53
2025-05-18 17:53:32.017,-2,-29,-20,6,3,3,8,-53
2025-05-18 17:53:32.027,23,6,-4,-1,-2,-6,-45,98
2025-05-18 17:53:32.037,-35,-23,-3,-1,1,1,-6,-14
2025-05-18 17:53:32.048,19,8,1,1,-4,-3,-3,73
2025-05-18 17:53:32.060,16,-1,-5,0,-2,-6,8,11
2025-05-18 17:53:32.071,16,-1,-5,0,-2,-6,8,11
2025-05-18 17:53:32.081,-34,19,-9,-1,0,-2,3,-73
2025-05-18 17:53:32.092,-34,19,-9,-1,0,-2,3,-73
2025-05-18 17:53:32.103,17,12,8,-1,3,7,1,39
2025-05-18 17:53:32.113,17,12,8,-1,3,7,1,39
2025-05-18 17:53:32.125,-21,0,-1,-6,-3,-3,-8,-43
2025-05-18 17:53:32.136,-21,0,-1,-6,-3,-3,-8,-43
2025-05-18 17:53:32.147,-72,10,4,-10,-6,5,15,-70
2025-05-18 17:53:32.157,7,6,8,3,1,1,-3,14
2025-05-18 17:53:32.167,14,8,-2,-1,-3,-11,-32,-55
2025-05-18 17:53:32.177,9,-2,6,-1,-2,-2,24,107
2025-05-18 17:53:32.189,9,-2,6,-1,-2,-2,24,107
2025-05-18 17:53:32.199,15,-1,2,2,3,5,0,46
2025-05-18 17:53:32.350,23,19,5,-2,-2,2,4,97
2025-05-18 17:53:32.361,41,22,2,1,3,5,6,-7
2025-05-18 17:53:32.373,41,22,2,1,3,5,6,-7
2025-05-18 17:53:32.383,13,10,5,0,4,4,22,-24
2025-05-18 17:53:32.395,2,3,4,-1,-6,-18,-33,-18
2025-05-18 17:53:32.406,6,-9,-3,-2,2,3,8,-51
2025-05-18 17:53:32.416,39,36,18,1,-1,5,30,67
2025-05-18 17:53:32.426,4,29,9,3,-4,-9,-13,30
2025-05-18 17:53:32.437,4,29,9,3,-4,-9,-13,30
2025-05-18 17:53:32.448,4,-7,-4,-4,-2,2,2,1
2025-05-18 17:53:32.459,4,-5,-11,-3,0,0,22,67
2025-05-18 17:53:32.469,-36,-6,-7,-2,-5,-7,-48,34
2025-05-18 17:53:32.480,6,3,-2,0,-1,1,-7,-23
2025-05-18 17:53:32.492,6,3,-2,0,-1,1,-7,-23
2025-05-18 17:53:32.504,-9,-8,4,0,1,-1,-5,2
2025-05-18 17:53:32.516,-10,-28,-7,-3,0,8,9,29
2025-05-18 17:53:32.527,4,-6,-7,3,2,-1,-1,-7
2025-05-18 17:53:32.537,-19,-29,-7,-2,-2,1,5,13
2025-05-18 17:53:32.547,-19,-29,-7,-2,-2,1,5,13
2025-05-18 17:53:32.559,12,0,-12,12,9,10,2,14
2025-05-18 17:53:32.570,12,0,-12,12,9,10,2,14
2025-05-18 17:53:32.581,-9,11,4,-8,-9,-7,19,30
2025-05-18 17:53:32.592,-9,11,4,-8,-9,-7,19,30
2025-05-18 17:53:32.602,7,24,17,3,3,12,27,19
2025-05-18 17:53:32.613,7,24,17,3,3,12,27,19
2025-05-18 17:53:32.624,1,-6,-6,-9,-6,-11,-15,18
2025-05-18 17:53:32.636,1,-8,-18,7,3,3,-24,-44
2025-05-18 17:53:32.648,24,-5,-2,0,3,6,18,75
2025-05-18 17:53:32.659,7,-3,-5,0,0,7,31,-122
2025-05-18 17:53:32.669,7,-3,-5,0,0,7,31,-122
2025-05-18 17:53:32.681,-10,-17,-1,-1,-1,-1,6,21
2025-05-18 17:53:32.691,-10,-17,-1,-1,-1,-1,6,21
2025-05-18 17:53:32.703,-30,-31,-6,0,4,10,0,-37
2025-05-18 17:53:32.715,-30,-31,-6,0,4,10,0,-37
2025-05-18 17:53:32.725,-17,11,1,-3,-4,-11,-18,56
2025-05-18 17:53:32.736,-17,11,1,-3,-4,-11,-18,56
2025-05-18 17:53:32.747,14,25,0,0,0,0,-4,-2
2025-05-18 17:53:32.757,14,25,0,0,0,0,-4,-2
2025-05-18 17:53:32.769,-16,-10,7,-2,-5,-11,2,-12
2025-05-18 17:53:32.779,-16,-9,-10,-3,-1,1,0,-37
2025-05-18 17:53:32.791,-16,-9,-10,-3,-1,1,0,-37
2025-05-18 17:53:32.802,12,9,-1,-6,-3,-2,1,14
2025-05-18 17:53:32.812,12,9,-1,-6,-3,-2,1,14
2025-05-18 17:53:32.822,3,7,-1,3,-1,5,9,-29
2025-05-18 17:53:32.833,3,7,-1,3,-1,5,9,-29
2025-05-18 17:53:32.844,2,-2,-6,-4,-1,0,-20,-15
2025-05-18 17:53:32.854,2,-2,-6,-4,-1,0,-20,-15
2025-05-18 17:53:32.865,-17,16,6,-3,-6,-9,-5,-21
2025-05-18 17:53:32.875,-17,16,6,-3,-6,-9,-5,-21
2025-05-18 17:53:32.885,43,14,5,2,2,0,8,98
2025-05-18 17:53:32.897,-2,-12,2,0,-2,-6,-9,-51
2025-05-18 17:53:32.909,-10,24,4,4,2,-1,-20,-58
2025-05-18 17:53:32.919,-41,-19,-11,-2,-4,-6,-17,-57
2025-05-18 17:53:32.931,2,-31,0,-2,-2,-7,-19,3
2025-05-18 17:53:32.942,-17,-8,-15,-1,-1,-1,-9,-114
2025-05-18 17:53:32.952,-35,6,3,-1,-2,0,-8,40
2025-05-18 17:53:32.963,-19,3,-5,2,1,0,5,-89
2025-05-18 17:53:32.974,-19,3,-5,2,1,0,5,-89
2025-05-18 17:53:32.984,11,-16,6,-2,-2,-1,9,-19
2025-05-18 17:53:32.995,11,-16,6,-2,-2,-1,9,-19
2025-05-18 17:53:33.007,-4,-37,-13,-9,-7,-6,10,-46
2025-05-18 17:53:33.017,8,-11,-3,-1,-4,-8,-27,67
2025-05-18 17:53:33.028,-12,-23,2,0,-1,7,1,107
2025-05-18 17:53:33.039,-14,3,0,4,2,4,30,-7
2025-05-18 17:53:33.050,2,19,3,0,0,3,-1,-10
2025-05-18 17:53:33.061,-28,-17,-5,1,0,4,-11,-6
2025-05-18 17:53:33.072,42,30,4,1,4,5,6,45
2025-05-18 17:53:33.082,47,16,-5,0,1,0,21,102
2025-05-18 17:53:33.093,47,16,-5,0,1,0,21,102
2025-05-18 17:53:33.107,8,6,6,-1,0,-3,-2,37
2025-05-18 17:53:33.117,8,6,6,-1,0,-3,-2,37
2025-05-18 17:53:33.129,-31,-5,-5,-1,0,1,-8,-100
2025-05-18 17:53:33.140,16,-15,-5,-2,1,3,9,35
2025-05-18 17:53:33.150,-32,-40,-19,-6,-5,-7,3,-52
2025-05-18 17:53:33.162,-6,-5,-6,-5,-3,0,21,76
2025-05-18 17:53:33.174,-6,-5,-6,-5,-3,0,21,76
2025-05-18 17:53:33.185,-12,4,6,0,-6,-15,-37,-28
2025-05-18 17:53:33.195,-6,-4,-14,-1,3,4,-13,-59
2025-05-18 17:53:33.206,-2,21,8,1,2,6,15,-13
2025-05-18 17:53:33.217,-24,-18,5,1,2,4,-3,-8
2025-05-18 17:53:33.228,-17,-10,-12,1,2,1,-35,-80
2025-05-18 17:53:33.239,-17,-10,-12,1,2,1,-35,-80
2025-05-18 17:53:33.251,31,26,14,2,0,-3,2,61
2025-05-18 17:53:33.262,-28,-9,6,2,-1,3,21,14
2025-05-18 17:53:33.272,10,0,-5,-1,1,5,11,10
2025-05-18 17:53:33.283,-1,3,3,0,-4,-8,-6,11
2025-05-18 17:53:33.294,-1,3,3,0,-4,-8,-6,11
2025-05-18 17:53:33.305,-4,-6,5,-1,1,9,17,-2
2025-05-18 17:53:33.315,-5,-10,-14,9,4,-1,-11,11
2025-05-18 17:53:33.327,4,19,6,0,-1,2,-9,1
2025-05-18 17:53:33.337,24,10,0,-3,1,3,-1,-53
2025-05-18 17:53:33.350,-24,-39,-17,-5,-3,-8,-9,-21
2025-05-18 17:53:33.362,1,-2,-5,-2,-4,-2,-8,-25
2025-05-18 17:53:33.372,1,-2,-5,-2,-4,-2,-8,-25
2025-05-18 17:53:33.382,-38,-28,-12,-1,-4,-6,-26,-49
2025-05-18 17:53:33.393,-22,-11,-9,0,-2,-2,1,0
2025-05-18 17:53:33.404,50,24,11,-3,-2,-2,-3,18
2025-05-18 17:53:33.414,50,24,11,-3,-2,-2,-3,18
2025-05-18 17:53:33.427,12,6,6,1,4,2,2,-15
2025-05-18 17:53:33.437,22,4,2,1,0,1,14,34
2025-05-18 17:53:33.449,7,-4,3,4,2,5,11,10
2025-05-18 17:53:33.460,11,-6,-8,-7,-3,-9,-9,-3
2025-05-18 17:53:33.471,11,-6,-8,-7,-3,-9,-9,-3
2025-05-18 17:53:33.481,2,-7,-1,-2,0,2,5,-19
2025-05-18 17:53:33.491,6,3,4,1,3,1,2,-11
2025-05-18 17:53:33.502,-4,1,-3,-4,-3,-2,-17,-24
2025-05-18 17:53:33.513,-15,-6,1,-1,-2,-4,-1,-11
2025-05-18 17:53:33.525,12,0,-3,-2,1,8,13,34
2025-05-18 17:53:33.536,12,0,-3,-2,1,8,13,34
2025-05-18 17:53:33.546,-13,-14,1,-2,-3,-1,14,46
2025-05-18 17:53:33.558,-4,5,7,-5,-2,0,6,2
2025-05-18 17:53:33.569,-6,-6,-19,-1,-1,-1,3,17
2025-05-18 17:53:33.579,-3,3,0,12,8,15,20,-6
2025-05-18 17:53:33.590,-3,3,0,12,8,15,20,-6
2025-05-18 17:53:33.601,-29,-4,-7,-4,-2,-6,-5,-36
2025-05-18 17:53:33.612,1,-2,5,-2,-3,-6,-13,-44
2025-05-18 17:53:33.624,11,-3,4,1,1,2,-6,20
2025-05-18 17:53:33.635,-24,1,-2,-5,-5,-11,-29,2
2025-05-18 17:53:33.646,3,-2,6,-4,-1,1,-6,7
2025-05-18 17:53:33.657,3,-2,6,-4,-1,1,-6,7
2025-05-18 17:53:33.669,9,-14,-2,0,0,1,2,15
2025-05-18 17:53:33.679,9,-14,-2,0,0,1,2,15
2025-05-18 17:53:33.690,14,27,4,-1,-4,-5,-7,6
2025-05-18 17:53:33.701,-55,-8,4,-1,-2,-2,-18,-16
2025-05-18 17:53:33.711,-55,-8,4,-1,-2,-2,-18,-16
2025-05-18 17:53:33.723,-13,7,-5,-6,-2,0,-5,-36
2025-05-18 17:53:33.733,-13,7,-5,-6,-2,0,-5,-36
2025-05-18 17:53:33.743,2,-1,-7,-6,-7,-3,-4,-46
2025-05-18 17:53:33.755,16,-1,-4,0,0,1,4,-14
2025-05-18 17:53:33.767,14,-1,0,1,-1,-2,10,25
2025-05-18 17:53:33.778,14,-1,0,1,-1,-2,10,25
2025-05-18 17:53:33.787,11,0,-3,-1,-2,-7,2,4
2025-05-18 17:53:33.798,11,0,-3,-1,-2,-7,2,4
2025-05-18 17:53:33.808,26,0,1,-3,-5,-1,17,17
2025-05-18 17:53:33.819,3,6,-4,1,1,1,-3,-15
2025-05-18 17:53:33.830,-11,6,5,-1,1,5,1,-50
2025-05-18 17:53:33.842,14,7,-2,-1,1,4,-4,25
2025-05-18 17:53:33.852,14,7,-2,-1,1,4,-4,25
2025-05-18 17:53:33.865,11,4,-5,0,0,-2,7,42
2025-05-18 17:53:33.876,11,4,-5,0,0,-2,7,42
2025-05-18 17:53:33.887,-23,-9,-1,-4,-5,-6,-5,-28
2025-05-18 17:53:33.899,-23,-9,-1,-4,-5,-6,-5,-28
2025-05-18 17:53:33.910,-2,14,3,-2,-4,-5,-7,-25
2025-05-18 17:53:33.921,-2,14,3,-2,-4,-5,-7,-25
2025-05-18 17:53:33.931,-4,-8,7,1,1,-1,4,32
2025-05-18 17:53:33.943,16,14,4,3,4,6,10,-19
2025-05-18 17:53:33.954,-1,-27,-13,4,2,1,-12,12
2025-05-18 17:53:33.964,-13,9,6,0,-1,1,-13,-28
2025-05-18 17:53:33.975,-13,9,6,0,-1,1,-13,-28
2025-05-18 17:53:33.986,-9,0,0,-5,-1,0,7,19
2025-05-18 17:53:33.996,-26,4,-2,1,0,2,-4,9
2025-05-18 17:53:34.007,3,-7,-3,-3,0,-3,4,-59
2025-05-18 17:53:34.017,3,-7,-3,-3,0,-3,4,-59
2025-05-18 17:53:34.029,3,-8,-9,0,3,4,-9,-16
2025-05-18 17:53:34.040,3,-8,-9,0,3,4,-9,-16
2025-05-18 17:53:34.050,-9,-3,1,-2,-1,0,6,-9
2025-05-18 17:53:34.061,16,13,3,3,1,-2,-1,-1
2025-05-18 17:53:34.072,30,-10,-4,-1,-2,-1,4,-17
2025-05-18 17:53:34.083,-36,-4,0,0,-2,-3,16,-9
2025-05-18 17:53:34.094,-36,-4,0,0,-2,-3,16,-9
2025-05-18 17:53:34.105,17,11,6,1,0,3,-8,10
2025-05-18 17:53:34.116,17,11,6,1,0,3,-8,10
2025-05-18 17:53:34.127,-5,-20,-10,-1,-1,-2,-4,37
2025-05-18 17:53:34.139,-5,-20,-10,-1,-1,-2,-4,37
2025-05-18 17:53:34.149,27,12,-1,0,2,4,7,85
2025-05-18 17:53:34.161,27,12,-1,0,2,4,7,85
2025-05-18 17:53:34.172,-3,-10,-9,1,-2,-2,2,56
2025-05-18 17:53:34.183,-14,6,9,-1,-2,1,0,0
2025-05-18 17:53:34.194,-14,-3,1,-5,-5,-2,12,3
2025-05-18 17:53:34.204,-18,4,6,8,3,0,-10,-65
2025-05-18 17:53:34.215,-18,4,6,8,3,0,-10,-65
2025-05-18 17:53:34.225,27,13,-4,5,3,1,-4,-16
2025-05-18 17:53:34.237,26,-18,-11,2,1,-1,-11,59
2025-05-18 17:53:34.246,-44,1,11,-4,-4,-2,-4,37
2025-05-18 17:53:34.256,-44,1,11,-4,-4,-2,-4,37
2025-05-18 17:53:34.268,11,10,5,-3,-2,-1,-19,47
2025-05-18 17:53:34.279,11,10,5,-3,-2,-1,-19,47
2025-05-18 17:53:34.289,12,-10,0,0,2,4,9,2
2025-05-18 17:53:34.300,-8,5,-13,-5,-2,1,-6,14
2025-05-18 17:53:34.312,15,10,-5,-7,-4,-4,6,2
2025-05-18 17:53:34.322,1,13,7,0,4,8,3,-10
2025-05-18 17:53:34.334,1,13,7,0,4,8,3,-10
2025-05-18 17:53:34.345,-16,6,5,0,1,2,1,-66
2025-05-18 17:53:34.355,-16,6,5,0,1,2,1,-66
2025-05-18 17:53:34.366,-1,-3,-3,3,-1,0,9,-12
2025-05-18 17:53:34.377,-1,-3,-3,3,-1,0,9,-12
2025-05-18 17:53:34.387,13,-10,-2,3,3,6,9,-2
2025-05-18 17:53:34.397,13,-10,-2,3,3,6,9,-2
2025-05-18 17:53:34.409,4,6,1,-2,-1,5,14,-35
2025-05-18 17:53:34.420,-22,11,6,-4,-2,-6,-5,-29
2025-05-18 17:53:34.431,-31,-50,-14,-8,-4,-11,-38,5
2025-05-18 17:53:34.443,-2,-3,1,0,-4,-4,4,-22
2025-05-18 17:53:34.455,-2,-3,1,0,-4,-4,4,-22
2025-05-18 17:53:34.465,-20,16,2,3,4,4,-2,-34
2025-05-18 17:53:34.476,-20,16,2,3,4,4,-2,-34
2025-05-18 17:53:34.487,1,4,2,4,4,-1,-6,17
2025-05-18 17:53:34.500,-9,-8,-12,-1,0,8,-9,-17
2025-05-18 17:53:34.511,1,5,3,1,0,-1,2,3
2025-05-18 17:53:34.521,1,5,3,1,0,-1,2,3
2025-05-18 17:53:34.530,18,3,2,-3,-2,-1,-5,17
2025-05-18 17:53:34.542,3,-2,3,0,-1,-4,21,39
2025-05-18 17:53:34.552,9,5,-7,-7,-8,-11,-14,-32
2025-05-18 17:53:34.563,-21,-12,-11,-1,-1,3,2,-28
2025-05-18 17:53:34.573,-21,-12,-11,-1,-1,3,2,-28
2025-05-18 17:53:34.584,-14,-15,6,-1,-2,-2,-7,18
2025-05-18 17:53:34.597,-14,-15,6,-1,-2,-2,-7,18
2025-05-18 17:53:34.608,-16,-6,-1,-1,-2,-2,-4,21
2025-05-18 17:53:34.619,-16,-6,-1,-1,-2,-2,-4,21
2025-05-18 17:53:34.630,25,13,2,-2,0,-5,-14,-21
2025-05-18 17:53:34.640,25,13,2,-2,0,-5,-14,-21
2025-05-18 17:53:34.652,-6,2,4,1,0,1,4,-10
2025-05-18 17:53:34.663,-6,2,4,1,0,1,4,-10
2025-05-18 17:53:34.674,4,-1,-11,-3,-2,-1,-9,-58
2025-05-18 17:53:34.684,22,-5,-1,-1,0,-6,-6,59
2025-05-18 17:53:34.696,22,-5,-1,-1,0,-6,-6,59
2025-05-18 17:53:34.707,-3,11,1,1,1,3,5,60
2025-05-18 17:53:34.717,-3,11,1,1,1,3,5,60
2025-05-18 17:53:34.729,18,7,-1,7,7,11,36,52
2025-05-18 17:53:34.739,18,7,-1,7,7,11,36,52
2025-05-18 17:53:34.749,-9,-9,2,-3,-1,7,10,-69
2025-05-18 17:53:34.761,-9,-9,2,-3,-1,7,10,-69
2025-05-18 17:53:34.771,18,5,9,2,3,1,20,25
2025-05-18 17:53:34.782,18,5,9,2,3,1,20,25
2025-05-18 17:53:34.795,9,-4,-3,-1,-2,-3,-27,-22
2025-05-18 17:53:34.806,-1,5,12,-2,0,1,15,29
2025-05-18 17:53:34.817,-17,-18,0,-6,-6,-11,-22,-8
2025-05-18 17:53:34.827,-14,6,-1,-1,-1,2,-5,38
2025-05-18 17:53:34.839,-14,6,-1,-1,-1,2,-5,38
2025-05-18 17:53:34.851,3,5,-1,2,1,-1,7,51
2025-05-18 17:53:34.862,-30,-10,-11,-4,-2,-1,-6,-26
2025-05-18 17:53:34.873,19,-7,-4,-2,-4,-6,3,11
2025-05-18 17:53:34.884,3,-3,0,10,5,3,7,31
2025-05-18 17:53:34.894,3,-3,0,10,5,3,7,31
2025-05-18 17:53:34.905,3,-3,0,10,5,3,7,31
2025-05-18 17:53:34.915,0,-2,4,-5,-4,-7,-17,-51
2025-05-18 17:53:34.926,2,-3,-5,-1,0,3,16,31
2025-05-18 17:53:34.936,-4,12,8,-1,-2,-1,-3,2
2025-05-18 17:53:34.947,-3,-17,3,3,3,10,6,12
2025-05-18 17:53:34.957,-3,-17,3,3,3,10,6,12
2025-05-18 17:53:34.967,2,1,-2,0,3,5,7,-27
2025-05-18 17:53:34.979,0,0,-19,-3,-4,-4,-4,-43
2025-05-18 17:53:34.990,6,2,-11,0,-3,-6,-14,13
2025-05-18 17:53:35.002,6,2,-11,0,-3,-6,-14,13
2025-05-18 17:53:35.012,-44,-8,-8,-9,-3,3,15,38
2025-05-18 17:53:35.024,-44,-8,-8,-9,-3,3,15,38
2025-05-18 17:53:35.034,26,14,5,-2,2,1,-3,11
2025-05-18 17:53:35.045,-7,-11,-1,-1,-2,-2,10,-1
2025-05-18 17:53:35.056,-39,-59,-13,-3,-3,-5,6,14
2025-05-18 17:53:35.066,-39,-59,-13,-3,-3,-5,6,14
2025-05-18 17:53:35.077,5,-5,-11,7,2,1,9,-30
2025-05-18 17:53:35.087,15,19,8,2,0,4,-1,3
2025-05-18 17:53:35.098,15,19,8,2,0,4,-1,3
2025-05-18 17:53:35.109,9,12,4,2,2,3,-1,-46
2025-05-18 17:53:35.120,9,12,4,2,2,3,-1,-46
2025-05-18 17:53:35.132,-39,-7,4,-5,-6,-8,-21,-35
2025-05-18 17:53:35.144,-39,-7,4,-5,-6,-8,-21,-35
2025-05-18 17:53:35.155,4,-19,-2,-2,-4,-10,-7,7
2025-05-18 17:53:35.166,-7,0,4,0,1,3,10,-31
2025-05-18 17:53:35.178,24,24,0,-7,-9,-17,-8,-18
2025-05-18 17:53:35.188,34,22,4,1,6,12,4,12
2025-05-18 17:53:35.199,34,22,4,1,6,12,4,12
2025-05-18 17:53:35.210,-5,5,-2,-5,-5,1,22,-7
2025-05-18 17:53:35.220,-1,-5,-1,2,2,8,18,61
2025-05-18 17:53:35.232,1,12,-2,-3,-6,-11,-17,1
2025-05-18 17:53:35.243,2,-17,-19,-3,0,-3,12,17
2025-05-18 17:53:35.254,-2,-23,1,1,5,9,-3,-8
2025-05-18 17:53:35.266,7,8,6,-3,-2,-3,5,21
2025-05-18 17:53:35.278,-6,-3,5,1,3,1,14,51
2025-05-18 17:53:35.289,11,10,-6,3,1,-1,1,50
2025-05-18 17:53:35.300,11,10,-6,3,1,-1,1,50
2025-05-18 17:53:35.311,19,4,-2,-2,0,2,-6,48
2025-05-18 17:53:35.323,19,4,-2,-2,0,2,-6,48
2025-05-18 17:53:35.334,1,7,1,0,1,4,-5,-31
2025-05-18 17:53:35.344,16,20,1,-2,-2,11,8,-20
2025-05-18 17:53:35.354,4,-1,7,-2,-2,-4,-12,-48
2025-05-18 17:53:35.368,14,-3,0,0,1,1,-1,-1
2025-05-18 17:53:35.380,14,-3,0,0,1,1,-1,-1
2025-05-18 17:53:35.390,10,-6,-4,0,0,0,22,66
2025-05-18 17:53:35.401,10,-6,-4,0,0,0,22,66
2025-05-18 17:53:35.412,-14,-8,-6,1,-1,2,-5,-50
2025-05-18 17:53:35.423,-9,-11,-1,-1,-1,0,5,9
2025-05-18 17:53:35.433,-9,-11,-1,-1,-1,0,5,9
2025-05-18 17:53:35.445,-32,4,7,-2,-1,-1,-9,40
2025-05-18 17:53:35.457,-17,4,-6,0,-5,-9,-17,1
2025-05-18 17:53:35.466,-17,4,-6,0,-5,-9,-17,1
2025-05-18 17:53:35.478,-38,-28,-7,-1,-1,0,-22,-49
2025-05-18 17:53:35.488,-3,-7,2,-1,0,0,5,-11
2025-05-18 17:53:35.499,-3,-7,2,-1,0,0,5,-11
2025-05-18 17:53:35.510,3,2,-12,0,-2,-8,-9,-29
2025-05-18 17:53:35.522,3,2,-12,0,-2,-8,-9,-29
2025-05-18 17:53:35.533,-38,5,4,2,0,1,-11,-73
2025-05-18 17:53:35.543,-10,-9,3,0,1,1,8,-13
2025-05-18 17:53:35.554,-10,-9,3,0,1,1,8,-13
2025-05-18 17:53:35.565,12,4,5,-1,-2,-1,20,42
2025-05-18 17:53:35.575,12,4,5,-1,-2,-1,20,42
2025-05-18 17:53:35.587,12,4,5,-1,-2,-1,20,42
2025-05-18 17:53:35.597,24,-5,-9,-1,1,4,-2,60
2025-05-18 17:53:35.609,-13,-22,2,1,3,-3,-22,34
2025-05-18 17:53:35.619,-13,-22,2,1,3,-3,-22,34
2025-05-18 17:53:35.631,16,8,-2,-4,-4,-1,14,20
2025-05-18 17:53:35.643,16,8,-2,-4,-4,-1,14,20
2025-05-18 17:53:35.652,29,-4,6,10,5,0,4,82
2025-05-18 17:53:35.664,27,14,-1,-3,-1,0,-25,-22
2025-05-18 17:53:35.675,27,14,-1,-3,-1,0,-25,-22
2025-05-18 17:53:35.685,10,31,7,-2,0,0,-11,-36
2025-05-18 17:53:35.694,-12,7,7,-1,-3,-3,-6,-46
2025-05-18 17:53:35.706,-12,7,7,-1,-3,-3,-6,-46
2025-05-18 17:53:35.717,-29,-11,-10,-3,-6,-9,-54,2
2025-05-18 17:53:35.727,0,-30,-3,-2,-3,-4,10,8
2025-05-18 17:53:35.737,0,-30,-3,-2,-3,-4,10,8
2025-05-18 17:53:35.749,16,9,1,-2,2,7,43,80
2025-05-18 17:53:35.760,16,9,1,-2,2,7,43,80
2025-05-18 17:53:35.770,-1,3,-2,-1,0,-2,-21,-97
2025-05-18 17:53:35.782,-22,-5,-5,-2,2,9,22,-4
2025-05-18 17:53:35.793,-4,1,1,2,1,-2,-14,-58
2025-05-18 17:53:35.804,-4,1,1,2,1,-2,-14,-58
2025-05-18 17:53:35.815,8,2,1,0,0,0,-8,6
2025-05-18 17:53:35.826,8,2,1,0,0,0,-8,6
2025-05-18 17:53:35.837,-7,-5,-5,0,2,4,2,16
2025-05-18 17:53:35.847,-10,-9,-6,-2,-1,4,13,-10
2025-05-18 17:53:35.859,-10,-9,-6,-2,-1,4,13,-10
2025-05-18 17:53:35.869,14,22,10,0,-1,-3,7,4
2025-05-18 17:53:35.880,14,22,10,0,-1,-3,7,4
2025-05-18 17:53:35.891,17,6,9,2,4,2,-11,32
2025-05-18 17:53:35.902,3,12,-3,0,0,-5,-7,26
2025-05-18 17:53:35.913,3,12,-3,0,0,-5,-7,26
2025-05-18 17:53:35.924,3,12,-3,0,0,-5,-7,26
2025-05-18 17:53:35.934,2,4,2,-2,0,-1,7,44
2025-05-18 17:53:35.946,2,4,2,-2,0,-1,7,44
2025-05-18 17:53:35.958,0,-12,-1,1,1,4,1,1
2025-05-18 17:53:35.968,5,10,-3,0,-3,-3,5,-23
2025-05-18 17:53:35.978,5,10,-3,0,-3,-3,5,-23
2025-05-18 17:53:35.989,10,11,10,-5,-4,-4,10,-23
2025-05-18 17:53:36.000,10,11,10,-5,-4,-4,10,-23
2025-05-18 17:53:36.010,-15,-4,-19,4,-1,-3,-33,4
2025-05-18 17:53:36.022,-15,-4,-19,4,-1,-3,-33,4
2025-05-18 17:53:36.032,8,-15,6,0,0,-2,-1,-17
2025-05-18 17:53:36.043,8,-15,6,0,0,-2,-1,-17
2025-05-18 17:53:36.054,-15,-6,-3,-3,-1,2,-7,0
2025-05-18 17:53:36.065,-15,-6,-3,-3,-1,2,-7,0
2025-05-18 17:53:36.077,-28,-15,-2,-7,-8,-13,-35,-37
2025-05-18 17:53:36.088,-23,-4,-2,-6,-5,-11,-23,-94
2025-05-18 17:53:36.097,20,-16,-10,1,1,5,27,37
2025-05-18 17:53:36.109,-27,-22,0,-3,-1,3,20,-89
2025-05-18 17:53:36.122,-27,-22,0,-3,-1,3,20,-89
2025-05-18 17:53:36.132,-7,-10,-5,-2,-3,-6,-24,49
2025-05-18 17:53:36.143,21,-7,-10,1,4,8,-4,54
2025-05-18 17:53:36.154,4,3,-8,2,1,2,5,-63
2025-05-18 17:53:36.166,20,2,-13,1,3,4,18,25
2025-05-18 17:53:36.176,20,2,-13,1,3,4,18,25
2025-05-18 17:53:36.187,-8,22,3,-5,-4,0,24,10
2025-05-18 17:53:36.199,24,1,6,2,-4,-11,-19,-19
2025-05-18 17:53:36.209,-6,-23,2,0,-1,-4,-30,22
2025-05-18 17:53:36.220,21,4,0,0,-2,-6,-27,61
2025-05-18 17:53:36.231,9,8,-6,0,-2,-1,13,16
2025-05-18 17:53:36.242,9,8,-6,0,-2,-1,13,16
2025-05-18 17:53:36.252,-31,7,3,-4,-3,-4,-1,-45
2025-05-18 17:53:36.263,2,-1,-6,0,-2,2,24,48
2025-05-18 17:53:36.274,-27,-5,11,3,3,4,10,19
2025-05-18 17:53:36.285,-48,-5,6,5,0,-7,-12,-3
2025-05-18 17:53:36.296,-6,-5,8,2,7,15,40,1
2025-05-18 17:53:36.308,27,0,-4,-2,-3,-1,-3,-23
2025-05-18 17:53:36.319,-1,21,1,6,4,10,-12,11
2025-05-18 17:53:36.329,-35,13,1,-5,-4,-5,-25,-97
2025-05-18 17:53:36.339,9,-6,-4,-3,-4,-8,-33,43
2025-05-18 17:53:36.349,-9,-18,-13,2,1,-1,-3,-8
2025-05-18 17:53:36.360,-9,-18,-13,2,1,-1,-3,-8
2025-05-18 17:53:36.371,-1,-3,7,-3,-4,-12,-12,4
2025-05-18 17:53:36.382,13,10,6,-1,4,5,-3,-13
2025-05-18 17:53:36.394,2,-21,-2,0,0,6,18,-32
2025-05-18 17:53:36.406,5,4,3,-1,-2,-4,2,-38
2025-05-18 17:53:36.416,5,4,3,-1,-2,-4,2,-38
2025-05-18 17:53:36.427,5,4,3,-1,-2,-4,2,-38
2025-05-18 17:53:36.438,11,-1,1,-4,-6,-8,-15,-1
2025-05-18 17:53:36.449,-4,-3,-10,1,4,4,22,-84
2025-05-18 17:53:36.460,-8,-1,1,1,2,6,7,-60
2025-05-18 17:53:36.472,14,10,-7,-4,2,6,-8,16
2025-05-18 17:53:36.483,14,10,-7,-4,2,6,-8,16
2025-05-18 17:53:36.493,8,5,2,0,-2,1,-18,-41
2025-05-18 17:53:36.504,8,5,2,0,-2,1,-18,-41
2025-05-18 17:53:36.515,17,1,1,4,4,-1,-13,11
2025-05-18 17:53:36.527,-21,-3,4,-1,1,1,-14,-12
2025-05-18 17:53:36.539,-21,-3,4,-1,1,1,-14,-12
2025-05-18 17:53:36.550,12,-6,4,-4,-4,4,27,83
2025-05-18 17:53:36.560,12,-6,4,-4,-4,4,27,83
2025-05-18 17:53:36.574,12,13,-3,2,-1,-1,15,32
2025-05-18 17:53:36.584,-4,1,3,-2,-1,1,30,35
2025-05-18 17:53:36.595,-27,-2,-3,2,5,5,0,-30
2025-05-18 17:53:36.606,-27,-2,-3,2,5,5,0,-30
2025-05-18 17:53:36.617,8,-3,-6,-3,-4,-1,20,10
2025-05-18 17:53:36.628,8,-3,-6,-3,-4,-1,20,10
2025-05-18 17:53:36.639,-16,-27,-2,4,1,-3,-23,-58
2025-05-18 17:53:36.650,-28,-6,0,-3,0,-7,23,-16
2025-05-18 17:53:36.661,-28,-6,0,-3,0,-7,23,-16
2025-05-18 17:53:36.671,3,-11,0,1,2,0,-2,26
2025-05-18 17:53:36.681,3,-11,0,1,2,0,-2,26
2025-05-18 17:53:36.694,12,11,4,-2,-2,-4,-16,40
2025-05-18 17:53:36.704,12,11,4,-2,-2,-4,-16,40
2025-05-18 17:53:36.715,6,7,-1,-1,1,6,12,58
2025-05-18 17:53:36.727,6,7,-1,-1,1,6,12,58
2025-05-18 17:53:36.738,4,-32,-7,0,-2,-3,-21,-5
2025-05-18 17:53:36.748,4,-32,-7,0,-2,-3,-21,-5
2025-05-18 17:53:36.757,14,-3,2,2,-3,-1,2,26
2025-05-18 17:53:36.767,-25,-16,-6,2,-3,-10,-39,-29
2025-05-18 17:53:36.780,-25,-16,-6,2,-3,-10,-39,-29
2025-05-18 17:53:36.791,30,25,5,4,1,-3,-25,44
2025-05-18 17:53:36.803,30,25,5,4,1,-3,-25,44
2025-05-18 17:53:36.813,-12,-8,-18,-1,0,1,16,-12
2025-05-18 17:53:36.825,0,4,0,-3,-4,-7,8,14
2025-05-18 17:53:36.835,0,4,0,-3,-4,-7,8,14
2025-05-18 17:53:36.847,-4,-4,3,2,5,7,3,-55
2025-05-18 17:53:36.857,22,9,-4,0,-2,-2,11,38
2025-05-18 17:53:36.867,22,9,-4,0,-2,-2,11,38
2025-05-18 17:53:36.879,-17,-54,-5,-3,-1,1,-4,28
2025-05-18 17:53:36.889,13,9,-9,-6,-4,-6,-6,-33
2025-05-18 17:53:36.900,13,9,-9,-6,-4,-6,-6,-33
2025-05-18 17:53:36.911,-5,10,4,-4,-3,-1,28,-1
2025-05-18 17:53:36.923,-5,10,4,-4,-3,-1,28,-1
2025-05-18 17:53:36.934,-13,-1,4,6,4,10,20,-60
2025-05-18 17:53:36.944,15,9,8,6,10,11,23,33
2025-05-18 17:53:36.956,-17,-8,4,-3,-5,-13,-38,-7
2025-05-18 17:53:36.968,-25,1,3,0,1,-3,-44,-10
2025-05-18 17:53:36.980,-25,1,3,0,1,-3,-44,-10
2025-05-18 17:53:36.991,-5,-29,-4,-3,-4,-2,6,-13
2025-05-18 17:53:37.001,16,-1,-1,-1,-3,-4,-30,13
2025-05-18 17:53:37.011,21,16,7,2,0,-4,28,6
2025-05-18 17:53:37.022,21,16,7,2,0,-4,28,6
2025-05-18 17:53:37.032,-22,-19,5,2,0,-4,-19,10
2025-05-18 17:53:37.042,-22,-19,5,2,0,-4,-19,10
2025-05-18 17:53:37.053,23,13,-2,0,-1,4,10,7
2025-05-18 17:53:37.063,23,13,-2,0,-1,4,10,7
2025-05-18 17:53:37.075,-36,-23,-16,-6,-1,7,-7,-103
2025-05-18 17:53:37.086,-36,-23,-16,-6,-1,7,-7,-103
2025-05-18 17:53:37.096,3,13,9,-3,-5,-8,-11,-18
2025-05-18 17:53:37.107,3,13,9,-3,-5,-8,-11,-18
2025-05-18 17:53:37.118,4,7,-7,1,1,4,7,42
2025-05-18 17:53:37.130,6,-8,1,-3,-6,-11,-19,34
2025-05-18 17:53:37.139,-12,-8,-2,-1,-1,2,21,-91
2025-05-18 17:53:37.152,22,13,17,2,1,2,-18,57
2025-05-18 17:53:37.162,22,13,17,2,1,2,-18,57
2025-05-18 17:53:37.173,22,-2,-6,-1,2,1,20,44
2025-05-18 17:53:37.183,22,-2,-6,-1,2,1,20,44
2025-05-18 17:53:37.195,-21,-19,-8,-2,-3,-2,6,33
2025-05-18 17:53:37.206,-21,-19,-8,-2,-3,-2,6,33
2025-05-18 17:53:37.216,27,14,2,-1,-5,-6,-11,18
2025-05-18 17:53:37.227,27,14,2,-1,-5,-6,-11,18
2025-05-18 17:53:37.239,26,11,1,6,7,7,23,63
2025-05-18 17:53:37.249,-42,-19,-2,-7,-2,-2,10,-26
2025-05-18 17:53:37.261,-28,-10,-6,-5,-8,-16,-21,-11
2025-05-18 17:53:37.272,-22,-3,5,-2,-4,-8,4,-3
2025-05-18 17:53:37.282,-22,-3,5,-2,-4,-8,4,-3
2025-05-18 17:53:37.292,2,-27,-18,6,6,14,29,-22
2025-05-18 17:53:37.302,2,-27,-18,6,6,14,29,-22
2025-05-18 17:53:37.314,-5,-7,0,-3,0,3,17,-6
2025-05-18 17:53:37.324,-5,-7,0,-3,0,3,17,-6
2025-05-18 17:53:37.336,5,-5,-3,-4,0,-4,-34,3
2025-05-18 17:53:37.347,5,-5,-3,-4,0,-4,-34,3
2025-05-18 17:53:37.357,-15,-10,4,-7,-10,-12,-28,23
2025-05-18 17:53:37.367,-26,-21,-3,-2,0,6,14,-46
2025-05-18 17:53:37.379,-16,-1,-3,-3,-4,-8,-25,-47
2025-05-18 17:53:37.389,24,6,-2,-2,-1,1,16,34
2025-05-18 17:53:37.401,24,6,-2,-2,-1,1,16,34
2025-05-18 17:53:37.412,13,2,5,5,3,9,56,86
2025-05-18 17:53:37.424,13,2,5,5,3,9,56,86
2025-05-18 17:53:37.435,16,16,0,5,4,-1,-18,0
2025-05-18 17:53:37.447,16,16,0,5,4,-1,-18,0
2025-05-18 17:53:37.457,18,14,20,1,2,6,0,25
2025-05-18 17:53:37.469,18,14,20,1,2,6,0,25
2025-05-18 17:53:37.479,1,4,-5,-3,0,-5,-2,-9
2025-05-18 17:53:37.489,1,4,-5,-3,0,-5,-2,-9
2025-05-18 17:53:37.499,10,10,4,-1,-1,10,26,-11
2025-05-18 17:53:37.510,3,6,3,0,0,1,2,21
2025-05-18 17:53:37.521,3,6,3,0,0,1,2,21
2025-05-18 17:53:37.531,-53,-37,-15,-3,-3,1,3,-24
2025-05-18 17:53:37.541,-53,-37,-15,-3,-3,1,3,-24
2025-05-18 17:53:37.552,12,-12,9,3,2,4,41,83
2025-05-18 17:53:37.564,-30,-10,1,-1,2,-1,-28,-77
2025-05-18 17:53:37.574,29,15,-3,-3,-6,-11,-25,16
2025-05-18 17:53:37.585,29,15,-3,-3,-6,-11,-25,16
2025-05-18 17:53:37.597,-7,0,2,-2,-3,-6,-27,-43
2025-05-18 17:53:37.608,-7,0,2,-2,-3,-6,-27,-43
2025-05-18 17:53:37.619,-11,-15,-12,1,1,0,3,-30
2025-05-18 17:53:37.630,30,18,2,0,-1,-4,39,84
2025-05-18 17:53:37.641,30,18,2,0,-1,-4,39,84
2025-05-18 17:53:37.651,-23,-8,-7,1,2,3,8,-69
2025-05-18 17:53:37.662,-23,-8,-7,1,2,3,8,-69
2025-05-18 17:53:37.673,9,8,5,1,-3,-8,-11,18
2025-05-18 17:53:37.683,-10,3,2,-2,-1,-1,-31,23
2025-05-18 17:53:37.693,19,5,-9,4,-1,-4,-30,4
2025-05-18 17:53:37.703,19,5,-9,4,-1,-4,-30,4
2025-05-18 17:53:37.715,6,-5,-6,-2,0,3,13,22
2025-05-18 17:53:37.725,6,-5,-6,-2,0,3,13,22
2025-05-18 17:53:37.735,-13,-16,-6,-6,-3,-1,0,31
2025-05-18 17:53:37.747,7,11,-8,-2,-2,-9,-14,9
2025-05-18 17:53:37.759,10,6,-5,-5,-9,-21,-2,-30
2025-05-18 17:53:37.770,19,14,5,-2,0,1,-38,-24
2025-05-18 17:53:37.782,-27,-44,-10,1,0,2,-5,-18
2025-05-18 17:53:37.791,-27,-44,-10,1,0,2,-5,-18
2025-05-18 17:53:37.802,13,-24,2,0,-1,1,-3,16
2025-05-18 17:53:37.814,-37,21,13,1,3,2,-5,-51
2025-05-18 17:53:37.825,-37,21,13,1,3,2,-5,-51
2025-05-18 17:53:37.836,14,12,-13,1,-4,-2,-10,4
2025-05-18 17:53:37.846,14,12,-13,1,-4,-2,-10,4
2025-05-18 17:53:37.856,-9,-19,7,-2,-4,-11,-1,-10
2025-05-18 17:53:37.866,-9,-19,7,-2,-4,-11,-1,-10
2025-05-18 17:53:37.876,10,7,-19,-1,1,5,16,26
2025-05-18 17:53:37.887,10,7,-19,-1,1,5,16,26
2025-05-18 17:53:37.898,15,15,5,-3,-1,3,2,-34
2025-05-18 17:53:37.909,15,15,5,-3,-1,3,2,-34
2025-05-18 17:53:37.921,11,1,6,4,3,2,0,51
2025-05-18 17:53:37.932,-8,2,2,-5,-5,-8,-13,-15
2025-05-18 17:53:37.943,-8,2,2,-5,-5,-8,-13,-15
2025-05-18 17:53:37.953,-23,3,-10,1,3,13,11,-10
2025-05-18 17:53:37.964,-23,3,-10,1,3,13,11,-10
2025-05-18 17:53:37.974,21,1,4,2,0,2,29,70
2025-05-18 17:53:37.985,21,1,4,2,0,2,29,70
2025-05-18 17:53:37.995,-15,1,8,1,-1,0,-10,-5
2025-05-18 17:53:38.006,-15,1,8,1,-1,0,-10,-5
2025-05-18 17:53:38.016,-2,-10,-5,-4,-2,-2,-11,-6
2025-05-18 17:53:38.028,-2,-10,-5,-4,-2,-2,-11,-6
2025-05-18 17:53:38.038,-13,-42,2,-4,-5,-8,-20,-15
2025-05-18 17:53:38.048,0,12,9,1,3,1,7,-7
2025-05-18 17:53:38.058,19,24,11,5,2,11,19,-33
2025-05-18 17:53:38.069,19,24,11,5,2,11,19,-33
2025-05-18 17:53:38.080,-2,15,-2,-7,-3,-6,-19,33
2025-05-18 17:53:38.090,-2,15,-2,-7,-3,-6,-19,33
2025-05-18 17:53:38.100,14,-2,1,4,2,0,7,21
2025-05-18 17:53:38.112,11,41,19,1,1,-5,22,12
2025-05-18 17:53:38.122,2,0,-1,-1,1,-2,-29,14
2025-05-18 17:53:38.132,-7,-1,-4,-4,-6,-5,1,4
2025-05-18 17:53:38.143,-7,-1,-4,-4,-6,-5,1,4
2025-05-18 17:53:38.154,41,13,-8,1,0,-2,11,14
2025-05-18 17:53:38.164,41,13,-8,1,0,-2,11,14
2025-05-18 17:53:38.177,-4,4,-2,-2,-1,1,1,-27
2025-05-18 17:53:38.189,-4,4,-2,-2,-1,1,1,-27
2025-05-18 17:53:38.199,-13,-23,-13,-2,0,-2,-1,-1
2025-05-18 17:53:38.211,-13,-23,-13,-2,0,-2,-1,-1
2025-05-18 17:53:38.221,-15,-1,6,-1,-5,-8,-31,-43
2025-05-18 17:53:38.232,22,12,4,2,4,7,11,4
2025-05-18 17:53:38.244,-1,6,7,-1,-1,0,-1,16
2025-05-18 17:53:38.254,4,2,-1,0,-1,0,5,3
2025-05-18 17:53:38.265,4,2,-1,0,-1,0,5,3
2025-05-18 17:53:38.277,-16,-12,-4,-1,-5,-11,-10,15
2025-05-18 17:53:38.287,-17,-3,6,3,0,-2,-11,-37
2025-05-18 17:53:38.299,13,-4,-6,1,4,7,10,-21
2025-05-18 17:53:38.309,13,-4,-6,1,4,7,10,-21
2025-05-18 17:53:38.320,-7,-9,-2,-3,-3,-1,9,-9
2025-05-18 17:53:38.331,-7,-9,-2,-3,-3,-1,9,-9
2025-05-18 17:53:38.342,1,8,-10,0,2,4,17,39
2025-05-18 17:53:38.352,2,1,-8,0,-1,-1,7,28
2025-05-18 17:53:38.363,3,6,0,-4,-3,-3,7,1
2025-05-18 17:53:38.373,2,0,4,-2,-2,-1,-8,2
2025-05-18 17:53:38.385,2,0,4,-2,-2,-1,-8,2
2025-05-18 17:53:38.395,-8,0,-8,0,-1,-2,-12,-12
2025-05-18 17:53:38.407,-8,0,-8,0,-1,-2,-12,-12
2025-05-18 17:53:38.418,-3,-23,-8,-2,0,-2,-1,-19
2025-05-18 17:53:38.429,-3,-23,-8,-2,0,-2,-1,-19
2025-05-18 17:53:38.440,10,9,-1,-4,-5,-5,0,-8
2025-05-18 17:53:38.450,10,9,-1,-4,-5,-5,0,-8
2025-05-18 17:53:38.461,-28,-24,3,1,-1,-3,-28,-75
2025-05-18 17:53:38.472,-28,-24,3,1,-1,-3,-28,-75
2025-05-18 17:53:38.482,3,5,-7,-2,-3,-4,0,22
2025-05-18 17:53:38.492,19,10,3,-2,-2,4,11,4
2025-05-18 17:53:38.503,19,10,3,-2,-2,4,11,4
2025-05-18 17:53:38.513,12,-5,-5,4,2,-1,2,11
2025-05-18 17:53:38.524,-23,-1,-2,-3,-2,-3,9,17
2025-05-18 17:53:38.535,-19,-3,5,0,7,0,0,-59
2025-05-18 17:53:38.545,1,3,3,-1,-5,-4,-11,7
2025-05-18 17:53:38.556,-10,4,-2,-1,0,1,3,12
2025-05-18 17:53:38.565,-10,4,-2,-1,0,1,3,12
2025-05-18 17:53:38.579,12,0,3,3,0,-3,14,25
2025-05-18 17:53:38.589,12,0,3,3,0,-3,14,25
2025-05-18 17:53:38.600,-47,-1,-3,-4,-2,-7,-32,-72
2025-05-18 17:53:38.611,12,1,1,-2,-6,5,1,-35
2025-05-18 17:53:38.621,18,7,4,2,-2,-6,-15,39
2025-05-18 17:53:38.632,18,7,4,2,-2,-6,-15,39
2025-05-18 17:53:38.642,15,18,2,3,4,2,26,40
2025-05-18 17:53:38.653,15,18,2,3,4,2,26,40
2025-05-18 17:53:38.665,9,-1,-4,-4,-2,-2,24,16
2025-05-18 17:53:38.675,12,4,-1,0,-1,-6,2,32
2025-05-18 17:53:38.685,19,-13,0,0,-2,-4,-1,31
2025-05-18 17:53:38.697,-33,-17,-5,-1,3,11,-8,-22
2025-05-18 17:53:38.707,-33,-17,-5,-1,3,11,-8,-22
2025-05-18 17:53:38.717,-8,2,-1,2,1,-1,-6,-56
2025-05-18 17:53:38.728,-8,2,-1,2,1,-1,-6,-56
2025-05-18 17:53:38.739,-21,-2,8,-3,-4,-3,-13,-1
2025-05-18 17:53:38.749,-21,-2,8,-3,-4,-3,-13,-1
2025-05-18 17:53:38.760,29,4,1,-2,-1,2,-7,-34
2025-05-18 17:53:38.770,29,4,1,-2,-1,2,-7,-34
2025-05-18 17:53:38.780,-7,14,3,1,3,5,11,19
2025-05-18 17:53:38.790,4,14,2,-2,0,1,3,-22
2025-05-18 17:53:38.801,27,6,-3,-2,-1,-3,1,-27
2025-05-18 17:53:38.811,27,6,-3,-2,-1,-3,1,-27
2025-05-18 17:53:38.822,-12,1,0,3,8,1,0,1
2025-05-18 17:53:38.833,-12,1,0,3,8,1,0,1
2025-05-18 17:53:38.843,5,-6,-2,-4,-6,-9,-6,-17
2025-05-18 17:53:38.855,42,11,2,0,1,5,12,30
2025-05-18 17:53:38.865,-7,-1,-5,-3,-2,-3,-22,10
2025-05-18 17:53:38.876,-12,-15,-9,0,-2,-3,-1,-38
2025-05-18 17:53:38.887,-12,-15,-9,0,-2,-3,-1,-38
2025-05-18 17:53:38.899,-12,-11,-3,-4,-6,-1,11,14
2025-05-18 17:53:38.910,13,18,15,-1,-4,-5,0,13
2025-05-18 17:53:38.921,-5,3,-4,0,-4,-1,2,-48
2025-05-18 17:53:38.931,-5,3,-4,0,-4,-1,2,-48
2025-05-18 17:53:38.942,8,5,-6,-2,-1,6,10,30
2025-05-18 17:53:38.953,8,5,-6,-2,-1,6,10,30
2025-05-18 17:53:38.965,4,16,-1,-5,-2,-9,12,25
2025-05-18 17:53:38.976,-3,7,-12,-2,-4,-7,-2,5
2025-05-18 17:53:38.988,10,-6,-8,0,-6,-11,-15,7
2025-05-18 17:53:38.998,-16,2,-7,-1,-1,0,14,-1
2025-05-18 17:53:39.009,-16,2,-7,-1,-1,0,14,-1
2025-05-18 17:53:39.020,-3,-6,7,1,3,11,23,11
2025-05-18 17:53:39.030,-3,0,4,0,-1,-5,14,31
2025-05-18 17:53:39.041,-16,-17,-8,-2,-2,-5,-14,-6
2025-05-18 17:53:39.052,29,4,-1,2,2,1,11,51
2025-05-18 17:53:39.064,12,12,15,-3,-3,0,-10,13
2025-05-18 17:53:39.073,12,12,15,-3,-3,0,-10,13
2025-05-18 17:53:39.084,-18,-8,-7,-3,-9,-6,-40,-105
2025-05-18 17:53:39.094,-20,-8,0,-1,2,-2,-10,-22
2025-05-18 17:53:39.105,14,6,-6,-2,-3,2,51,71
2025-05-18 17:53:39.115,1,0,-10,-6,-3,-2,-8,14
2025-05-18 17:53:39.125,1,0,-10,-6,-3,-2,-8,14
2025-05-18 17:53:39.136,-51,-34,-11,-2,0,-2,19,-18
2025-05-18 17:53:39.147,-2,1,3,-1,4,5,-5,16
2025-05-18 17:53:39.157,-30,-7,-2,1,1,0,-29,-67
2025-05-18 17:53:39.168,-30,-7,-2,1,1,0,-29,-67
2025-05-18 17:53:39.179,34,6,3,3,0,-9,1,90
2025-05-18 17:53:39.190,34,6,3,3,0,-9,1,90
2025-05-18 17:53:39.200,-17,7,11,-8,-3,-6,-13,-27
2025-05-18 17:53:39.211,27,0,5,0,-2,-2,-40,0
2025-05-18 17:53:39.221,-1,0,1,-1,-4,-4,11,8
2025-05-18 17:53:39.231,-1,0,1,-1,-4,-4,11,8
2025-05-18 17:53:39.243,2,5,-6,-4,-6,-7,-10,-8
2025-05-18 17:53:39.253,2,5,-6,-4,-6,-7,-10,-8
2025-05-18 17:53:39.265,-20,-23,-14,6,4,6,29,28
2025-05-18 17:53:39.275,18,-33,3,-1,0,-1,18,31
2025-05-18 17:53:39.285,3,8,4,-1,3,1,8,-18
2025-05-18 17:53:39.296,-15,-4,1,-1,-1,-10,-16,-45
2025-05-18 17:53:39.306,-15,-4,1,-1,-1,-10,-16,-45
2025-05-18 17:53:39.317,6,5,-4,-2,-3,0,9,7
2025-05-18 17:53:39.327,6,5,-4,-2,-3,0,9,7
2025-05-18 17:53:39.339,11,5,-6,-6,-6,-4,13,31
2025-05-18 17:53:39.351,11,5,-6,-6,-6,-4,13,31
2025-05-18 17:53:39.361,-10,-4,-2,0,-2,-2,5,-52
2025-05-18 17:53:39.371,-10,-4,-2,0,-2,-2,5,-52
2025-05-18 17:53:39.383,-5,-3,5,-2,3,7,3,-29
2025-05-18 17:53:39.394,-5,-3,5,-2,3,7,3,-29
2025-05-18 17:53:39.405,25,10,-2,2,0,1,-14,7
2025-05-18 17:53:39.415,-11,0,0,4,3,5,-1,-17
2025-05-18 17:53:39.425,-8,0,-3,-1,3,6,0,42
2025-05-18 17:53:39.437,-35,-25,-8,-2,-2,-10,-14,-40
2025-05-18 17:53:39.447,-35,-25,-8,-2,-2,-10,-14,-40
2025-05-18 17:53:39.458,8,5,10,-4,1,6,23,50
2025-05-18 17:53:39.467,-55,-2,-4,-2,-7,-3,-10,8
2025-05-18 17:53:39.479,31,8,-14,-1,-2,-3,-4,25
2025-05-18 17:53:39.490,31,8,-14,-1,-2,-3,-4,25
2025-05-18 17:53:39.501,36,14,7,0,-3,-7,-25,21
2025-05-18 17:53:39.512,36,14,7,0,-3,-7,-25,21
2025-05-18 17:53:39.523,16,18,14,-3,-2,-2,14,-24
2025-05-18 17:53:39.535,-7,-3,3,1,-4,-2,20,19
2025-05-18 17:53:39.546,-14,-11,-1,1,1,-4,9,8
2025-05-18 17:53:39.556,5,7,-5,0,-1,1,10,14
2025-05-18 17:53:39.566,9,0,-3,0,2,8,19,17
2025-05-18 17:53:39.577,9,0,-3,0,2,8,19,17
2025-05-18 17:53:39.588,-2,-24,-17,3,4,5,6,-34
2025-05-18 17:53:39.600,-15,4,4,-6,-5,-7,-21,17
2025-05-18 17:53:39.610,-15,4,4,-6,-5,-7,-21,17
2025-05-18 17:53:39.621,16,6,6,4,4,12,29,42
2025-05-18 17:53:39.631,16,6,6,4,4,12,29,42
2025-05-18 17:53:39.641,-6,1,-3,-4,0,1,1,-10
2025-05-18 17:53:39.652,-4,-6,6,-2,2,1,-19,-15
2025-05-18 17:53:39.664,10,-3,-6,-4,-11,-7,2,-17
2025-05-18 17:53:39.675,27,12,-7,2,0,1,3,16
2025-05-18 17:53:39.685,-3,-10,15,-7,-6,-3,2,-7
2025-05-18 17:53:39.697,-3,-10,15,-7,-6,-3,2,-7
2025-05-18 17:53:39.707,-3,6,0,-2,4,1,-9,-42
2025-05-18 17:53:39.720,3,1,-3,0,-2,-4,-8,-32
2025-05-18 17:53:39.730,3,1,-3,0,-2,-4,-8,-32
2025-05-18 17:53:39.741,2,0,-3,0,-1,-9,-13,-4
2025-05-18 17:53:39.753,2,0,-3,0,-1,-9,-13,-4
2025-05-18 17:53:54.428,7,3,3,1,-1,1,1,-6
2025-05-18 17:53:54.439,-1,5,1,-1,-1,-4,-1,7
2025-05-18 17:53:54.450,11,9,-14,2,-1,-2,3,5
2025-05-18 17:53:54.462,1,-17,-4,2,2,2,0,-1
2025-05-18 17:53:54.472,-1,22,-8,-3,-5,-2,-5,-5
2025-05-18 17:53:54.482,-1,22,-8,-3,-5,-2,-5,-5
2025-05-18 17:53:54.494,-1,22,-8,-3,-5,-2,-5,-5
2025-05-18 17:53:54.505,-13,-40,-11,2,0,-1,0,16
2025-05-18 17:53:54.516,-13,-40,-11,2,0,-1,0,16
2025-05-18 17:53:54.528,29,-31,-3,-5,-4,-1,16,-20
2025-05-18 17:53:54.540,2,11,4,3,-2,-1,-8,2
2025-05-18 17:53:54.551,2,11,4,3,-2,-1,-8,2
2025-05-18 17:53:54.561,-3,26,1,0,0,-3,-6,-1
2025-05-18 17:53:54.573,-3,26,1,0,0,-3,-6,-1
2025-05-18 17:53:54.583,0,-5,4,2,1,-4,-13,-5
2025-05-18 17:53:54.595,0,-5,4,2,1,-4,-13,-5
2025-05-18 17:53:54.606,1,-18,-8,0,0,-2,-7,-2
2025-05-18 17:53:54.618,20,-1,-11,2,1,2,-4,-12
2025-05-18 17:53:54.629,20,-1,-11,2,1,2,-4,-12
2025-05-18 17:53:54.641,-17,-3,-3,-9,-11,-6,-2,30
2025-05-18 17:53:54.652,-3,-3,4,2,1,-1,-2,-13
2025-05-18 17:53:54.664,-3,-3,4,2,1,-1,-2,-13
2025-05-18 17:53:54.676,-58,-3,2,-1,-2,1,3,-22
2025-05-18 17:53:54.686,-58,-3,2,-1,-2,1,3,-22
2025-05-18 17:53:54.697,39,28,13,-4,-1,-5,1,24
2025-05-18 17:53:54.708,39,28,13,-4,-1,-5,1,24
2025-05-18 17:53:54.719,-2,1,6,5,9,11,13,-35
2025-05-18 17:53:54.729,-2,1,6,5,9,11,13,-35
2025-05-18 17:53:54.741,1,-3,-11,3,3,-1,-5,-31
2025-05-18 17:53:54.751,1,-3,-11,3,3,-1,-5,-31
2025-05-18 17:53:54.762,21,7,8,4,-3,-11,-5,54
2025-05-18 17:53:54.773,6,14,-1,-1,3,4,40,49
2025-05-18 17:53:54.785,34,12,3,2,6,17,7,-20
2025-05-18 17:53:54.796,-6,-3,-15,-10,-16,-19,-11,-46
2025-05-18 17:53:54.806,-6,-3,-15,-10,-16,-19,-11,-46
2025-05-18 17:53:54.816,-8,5,-10,5,5,8,22,-37
2025-05-18 17:53:54.828,4,-4,3,-5,-1,5,8,47
2025-05-18 17:53:54.839,-30,-15,1,-7,-4,-5,-38,32
2025-05-18 17:53:54.850,-30,-15,1,-7,-4,-5,-38,32
2025-05-18 17:53:54.862,25,0,-12,9,9,9,19,21
2025-05-18 17:53:54.872,25,0,-12,9,9,9,19,21
2025-05-18 17:53:54.882,-4,1,0,-10,-8,-3,36,-11
2025-05-18 17:53:54.893,-24,-12,-6,-2,-4,-7,-27,-42
2025-05-18 17:53:54.905,-24,-12,-6,-2,-4,-7,-27,-42
2025-05-18 17:53:54.916,4,9,6,4,3,1,3,31
2025-05-18 17:53:54.927,4,9,6,4,3,1,3,31
2025-05-18 17:53:54.939,27,-8,-11,-1,-1,0,-2,23
2025-05-18 17:53:54.950,27,-8,-11,-1,-1,0,-2,23
2025-05-18 17:53:54.960,-4,-4,-6,-2,1,-4,5,19
2025-05-18 17:53:54.972,-4,-4,-6,-2,1,-4,5,19
2025-05-18 17:53:54.982,-7,5,9,-6,-4,-7,-16,56
2025-05-18 17:53:54.992,-7,5,9,-6,-4,-7,-16,56
2025-05-18 17:53:55.004,-18,-4,-2,-1,-4,-10,-29,-2
2025-05-18 17:53:55.015,7,-17,-4,7,3,7,30,-23
2025-05-18 17:53:55.025,7,-17,-4,7,3,7,30,-23
2025-05-18 17:53:55.036,-22,1,-10,-2,-6,-10,-8,-12
2025-05-18 17:53:55.047,-22,1,-10,-2,-6,-10,-8,-12
2025-05-18 17:53:55.058,-4,2,4,-6,-5,-4,-12,-18
2025-05-18 17:53:55.069,-4,2,4,-6,-5,-4,-12,-18
2025-05-18 17:53:55.079,31,9,9,7,8,16,21,11
2025-05-18 17:53:55.091,31,9,9,7,8,16,21,11
2025-05-18 17:53:55.101,8,0,11,0,1,0,-12,-30
2025-05-18 17:53:55.111,8,0,11,0,1,0,-12,-30
2025-05-18 17:53:55.123,9,3,5,-7,-6,-8,-8,16
2025-05-18 17:53:55.134,-42,-13,-4,-3,-4,6,-3,-65
2025-05-18 17:53:55.145,-19,-5,1,3,-3,0,40,51
2025-05-18 17:53:55.156,-7,0,-11,-4,-7,-7,7,-105
2025-05-18 17:53:55.166,-7,0,-11,-4,-7,-7,7,-105
2025-05-18 17:53:55.178,-31,-2,-6,1,3,2,-22,-73
2025-05-18 17:53:55.190,-31,-2,-6,1,3,2,-22,-73
2025-05-18 17:53:55.200,19,-7,-8,0,-1,1,-11,82
2025-05-18 17:53:55.213,19,-7,-8,0,-1,1,-11,82
2025-05-18 17:53:55.223,13,-15,-15,-3,-2,-12,1,9
2025-05-18 17:53:55.233,13,-15,-15,-3,-2,-12,1,9
2025-05-18 17:53:55.245,-30,-3,4,-3,1,3,1,4
2025-05-18 17:53:55.256,3,-6,-10,1,-1,-7,-15,14
2025-05-18 17:53:55.267,-23,-5,-3,-4,-6,-15,-40,-54
2025-05-18 17:53:55.279,16,6,6,0,0,3,-10,-1
2025-05-18 17:53:55.290,16,6,6,0,0,3,-10,-1
2025-05-18 17:53:55.301,-26,-10,-3,-5,-3,-1,12,-41
2025-05-18 17:53:55.312,-2,6,8,-2,0,3,30,31
2025-05-18 17:53:55.322,-1,-3,-6,1,0,4,15,-10
2025-05-18 17:53:55.333,-10,-3,4,0,1,-4,-5,-68
2025-05-18 17:53:55.344,23,6,-2,-3,1,5,26,52
2025-05-18 17:53:55.356,23,6,-2,-3,1,5,26,52
2025-05-18 17:53:55.366,12,-4,-11,1,3,6,8,-13
2025-05-18 17:53:55.378,14,-2,-1,-1,-2,-13,-28,-5
2025-05-18 17:53:55.388,-9,7,8,2,1,-1,3,48
2025-05-18 17:53:55.398,-5,-5,-3,-2,-2,2,15,4
2025-05-18 17:53:55.409,-5,-5,-3,-2,-2,2,15,4
2025-05-18 17:53:55.420,-14,-2,0,-2,-6,-10,-25,-30
2025-05-18 17:53:55.431,-14,-2,0,-2,-6,-10,-25,-30
2025-05-18 17:53:55.444,-9,-10,-17,6,2,-1,-6,-17
2025-05-18 17:53:55.455,20,1,0,1,-1,0,-7,12
2025-05-18 17:53:55.465,2,-3,1,-2,-1,0,9,-3
2025-05-18 17:53:55.476,2,-3,1,-2,-1,0,9,-3
2025-05-18 17:53:55.486,2,3,3,-4,-5,-2,-13,23
2025-05-18 17:53:55.496,2,3,3,-4,-5,-2,-13,23
2025-05-18 17:53:55.507,-16,4,4,1,2,1,-4,-6
2025-05-18 17:53:55.518,-35,-3,-2,-7,-5,-6,-11,-14
2025-05-18 17:53:55.528,-35,-3,-2,-7,-5,-6,-11,-14
2025-05-18 17:53:55.538,0,-6,-4,-2,-2,-7,-19,-21
2025-05-18 17:53:55.549,11,5,4,-3,-2,-4,-16,8
2025-05-18 17:53:55.560,-3,1,2,-2,0,0,17,39
2025-05-18 17:53:55.571,16,3,3,0,2,0,-11,-7
2025-05-18 17:53:55.582,12,-8,-14,1,2,3,3,4
2025-05-18 17:53:55.594,12,-8,-14,1,2,3,3,4
2025-05-18 17:53:55.605,21,4,2,1,1,7,28,19
2025-05-18 17:53:55.616,21,4,2,1,1,7,28,19
2025-05-18 17:53:55.627,-16,-4,0,-4,-3,-4,-11,22
2025-05-18 17:53:55.639,-10,-3,-4,4,2,6,7,-19
2025-05-18 17:53:55.650,-20,-6,-1,0,-2,-5,14,7
2025-05-18 17:53:55.662,11,6,8,-4,-5,1,-22,8
2025-05-18 17:53:55.672,11,6,8,-4,-5,1,-22,8
2025-05-18 17:53:55.682,2,4,-1,-5,-3,-9,0,-15
2025-05-18 17:53:55.693,2,4,-1,-5,-3,-9,0,-15
2025-05-18 17:53:55.704,15,-3,4,-1,1,-1,-13,18
2025-05-18 17:53:55.715,8,1,-3,-1,-2,-2,-5,3
2025-05-18 17:53:55.725,3,-8,-6,-2,-5,-10,-11,12
2025-05-18 17:53:55.737,3,-8,-6,-2,-5,-10,-11,12
2025-05-18 17:53:55.747,-10,-1,-2,0,1,3,-8,-45
2025-05-18 17:53:55.759,1,1,-6,-5,-6,-2,-2,2
2025-05-18 17:53:55.771,-19,2,6,-2,0,3,10,18
2025-05-18 17:53:55.782,-3,8,15,-3,-3,-1,3,-14
2025-05-18 17:53:55.792,-3,8,15,-3,-3,-1,3,-14
2025-05-18 17:53:55.803,-4,-2,-7,0,0,-4,-12,-5
2025-05-18 17:53:55.814,-12,-6,-8,1,-1,-5,-23,-103
2025-05-18 17:53:55.826,19,4,-3,-2,-2,-9,0,2
2025-05-18 17:53:55.837,-22,-2,4,-2,-3,0,11,-15
2025-05-18 17:53:55.847,1,-2,-10,-4,-6,-1,-1,-16
2025-05-18 17:53:55.859,1,-2,-10,-4,-6,-1,-1,-16
2025-05-18 17:53:55.870,9,-2,3,2,-3,-3,-2,5
2025-05-18 17:53:55.882,12,4,7,3,3,9,25,68
2025-05-18 17:53:55.892,12,4,7,3,3,9,25,68
2025-05-18 17:53:55.902,-25,-6,-5,-3,0,-2,-8,-22
2025-05-18 17:53:55.913,-25,-6,-5,-3,0,-2,-8,-22
2025-05-18 17:53:55.923,-9,-4,-8,0,-2,-4,-6,-13
2025-05-18 17:53:55.934,-17,-10,-13,-4,-2,-4,-13,-80
2025-05-18 17:53:55.944,-15,-2,-13,-5,-5,-2,4,6
2025-05-18 17:53:55.956,-15,-2,-13,-5,-5,-2,4,6
2025-05-18 17:53:55.968,-15,-3,-5,-4,-3,-1,-4,-55
2025-05-18 17:53:55.979,-15,-3,-5,-4,-3,-1,-4,-55
2025-05-18 17:53:55.990,8,-1,-1,-1,1,2,-30,2
2025-05-18 17:53:56.002,6,6,2,3,5,1,-2,0
2025-05-18 17:53:56.014,6,6,2,3,5,1,-2,0
2025-05-18 17:53:56.024,-4,-2,0,4,0,-2,24,31
2025-05-18 17:53:56.035,-4,-2,0,4,0,-2,24,31
2025-05-18 17:53:56.045,24,6,1,-2,0,2,-4,-3
2025-05-18 17:53:56.057,-1,-9,-12,-3,-4,-8,-9,33
2025-05-18 17:53:56.067,0,0,0,-4,-3,-9,-10,-28
2025-05-18 17:53:56.079,-29,-3,-5,-1,1,1,1,-13
2025-05-18 17:53:56.090,-29,-3,-5,-1,1,1,1,-13
2025-05-18 17:53:56.101,-9,-3,-2,-2,-2,2,7,8
2025-05-18 17:53:56.112,-9,-3,-2,-2,-2,2,7,8
2025-05-18 17:53:56.124,1,0,-4,-1,0,0,11,-1
2025-05-18 17:53:56.134,1,0,-4,-1,0,0,11,-1
2025-05-18 17:53:56.143,1,5,9,-4,-3,-5,4,11
2025-05-18 17:53:56.155,1,5,9,-4,-3,-5,4,11
2025-05-18 17:53:56.166,-9,-3,-2,-1,-5,-6,-6,-14
2025-05-18 17:53:56.178,-2,-1,-1,1,1,1,10,11
2025-05-18 17:53:56.189,22,0,-3,-1,-2,-2,-18,-9
2025-05-18 17:53:56.201,8,-4,-5,-1,-2,0,-5,3
2025-05-18 17:53:56.211,8,-4,-5,-1,-2,0,-5,3
2025-05-18 17:53:56.221,-8,-1,0,0,2,4,20,23
2025-05-18 17:53:56.231,-2,1,-6,2,-1,-4,3,-5
2025-05-18 17:53:56.242,-11,1,-1,0,-1,2,4,-1
2025-05-18 17:53:56.252,-11,1,-1,0,-1,2,4,-1
2025-05-18 17:53:56.262,4,1,2,-6,-2,1,7,-2
2025-05-18 17:53:56.274,4,1,2,-6,-2,1,7,-2
2025-05-18 17:53:56.284,-4,4,6,-2,-2,0,-5,-57
2025-05-18 17:53:56.296,7,-1,-2,0,0,2,4,10
2025-05-18 17:53:56.306,8,0,-3,3,-1,-6,-5,16
2025-05-18 17:53:56.317,8,0,-3,3,-1,-6,-5,16
2025-05-18 17:53:56.327,-1,3,1,-2,-4,0,2,0
2025-05-18 17:53:56.339,-1,3,1,-2,-4,0,2,0
2025-05-18 17:53:56.350,-28,-11,-8,0,0,1,-3,-6
2025-05-18 17:53:56.361,22,-2,-9,-2,-1,3,0,10
2025-05-18 17:53:56.371,-10,-2,-6,-3,0,0,-10,-7
2025-05-18 17:53:56.381,14,-3,-8,-2,-2,-1,9,28
2025-05-18 17:53:56.392,14,-3,-8,-2,-2,-1,9,28
2025-05-18 17:53:56.403,4,1,7,1,2,1,3,1
2025-05-18 17:53:56.412,4,1,7,1,2,1,3,1
2025-05-18 17:53:56.424,-6,-2,-5,-4,-2,-2,-7,-41
2025-05-18 17:53:56.434,-6,-2,-5,-4,-2,-2,-7,-41
2025-05-18 17:53:56.445,-16,-1,0,-2,-1,-5,-10,-26
2025-05-18 17:53:56.457,-16,-1,0,-2,-1,-5,-10,-26
2025-05-18 17:53:56.468,7,4,1,0,3,4,7,15
2025-05-18 17:53:56.478,7,4,1,0,3,4,7,15
2025-05-18 17:53:56.489,-4,-1,-9,-1,-3,-7,-5,5
2025-05-18 17:53:56.499,18,-1,-2,-6,-4,-2,0,17
2025-05-18 17:53:56.511,18,-1,-2,-6,-4,-2,0,17
2025-05-18 17:53:56.521,4,2,3,-1,0,1,15,3
2025-05-18 17:53:56.532,4,2,3,-1,0,1,15,3
2025-05-18 17:53:56.543,-16,-8,-11,1,-1,-8,-6,-7
2025-05-18 17:53:56.553,-16,-8,-11,1,-1,-8,-6,-7
2025-05-18 17:53:56.563,-8,-1,-1,-1,1,1,-4,8
2025-05-18 17:53:56.575,-8,-1,-1,-1,1,1,-4,8
2025-05-18 17:53:56.587,-11,-2,-1,-1,-4,-1,6,-6
2025-05-18 17:53:56.598,-11,-2,-1,-1,-4,-1,6,-6
2025-05-18 17:53:56.608,-7,2,1,0,-3,-11,-5,-10
2025-05-18 17:53:56.617,-6,-4,-5,-3,-3,-2,-7,-25
2025-05-18 17:53:56.629,-3,4,-1,0,-1,-1,4,-23
2025-05-18 17:53:56.640,-17,-7,0,0,-3,-4,-5,6
2025-05-18 17:53:56.652,-7,1,-7,-3,0,7,6,0
2025-05-18 17:53:56.663,-8,-15,-10,-3,-6,-16,-26,-13
2025-05-18 17:53:56.674,12,5,0,-3,-5,-2,-8,1
2025-05-18 17:53:56.685,8,7,4,-2,1,6,23,24
2025-05-18 17:53:56.696,8,7,4,-2,1,6,23,24
2025-05-18 17:53:56.709,-8,-4,-8,-2,-1,0,-10,2
2025-05-18 17:53:56.717,-8,-4,-8,-2,-1,0,-10,2
2025-05-18 17:53:56.730,19,3,1,-5,-5,-3,0,-2
2025-05-18 17:53:56.741,4,5,8,2,4,3,0,-6
2025-05-18 17:53:56.752,-2,-11,-13,3,2,-4,-12,-49
2025-05-18 17:53:56.764,-26,5,4,4,1,3,-6,-6
2025-05-18 17:53:56.774,-26,5,4,4,1,3,-6,-6
2025-05-18 17:53:56.788,-11,-1,2,1,0,1,12,25
2025-05-18 17:53:56.797,22,3,9,0,-1,1,0,24
2025-05-18 17:53:56.808,-13,-3,2,-4,0,4,-20,-9
2025-05-18 17:53:56.819,-13,-3,2,-4,0,4,-20,-9
2025-05-18 17:53:56.830,6,1,5,-2,-3,1,31,42
2025-05-18 17:53:56.840,6,1,5,-2,-3,1,31,42
2025-05-18 17:53:56.851,-13,6,8,-2,-3,-13,-11,-3
2025-05-18 17:53:56.862,11,-3,-11,6,4,-1,-3,-25
2025-05-18 17:53:56.872,5,-2,-10,1,2,2,-1,-12
2025-05-18 17:53:56.882,2,1,1,-2,-3,-6,6,33
2025-05-18 17:53:56.894,2,1,1,-2,-3,-6,6,33
2025-05-18 17:53:56.904,-5,1,0,-2,-5,-12,12,13
2025-05-18 17:53:56.914,-5,1,0,-2,-5,-12,12,13
2025-05-18 17:53:56.925,20,-10,-14,-2,2,4,17,10
2025-05-18 17:53:56.937,20,-10,-14,-2,2,4,17,10
2025-05-18 17:53:56.948,-10,6,5,-2,-3,-4,-4,-17
2025-05-18 17:53:56.960,-10,6,5,-2,-3,-4,-4,-17
2025-05-18 17:53:56.971,-9,-1,2,-3,-2,-4,-17,-58
2025-05-18 17:53:56.981,29,4,0,-2,0,7,15,-5
2025-05-18 17:53:56.993,5,4,5,-3,-4,-14,-12,5
2025-05-18 17:53:57.003,-1,4,-1,-2,2,4,-9,-32
2025-05-18 17:53:57.015,-1,4,-1,-2,2,4,-9,-32
2025-05-18 17:53:57.026,-6,2,2,-1,1,8,16,-21
2025-05-18 17:53:57.038,-29,-4,6,-4,-7,-10,-32,-65
2025-05-18 17:53:57.049,-13,3,5,-1,-3,-4,-7,1
2025-05-18 17:53:57.061,2,0,-4,0,2,11,16,25
2025-05-18 17:53:57.071,2,0,-4,0,2,11,16,25
2025-05-18 17:53:57.083,9,5,3,-6,-7,-12,-13,-16
2025-05-18 17:53:57.093,-8,-7,-16,0,2,0,16,17
2025-05-18 17:53:57.103,13,2,3,3,2,3,2,50
2025-05-18 17:53:57.113,2,-4,-3,-8,-5,-7,-23,2
2025-05-18 17:53:57.125,7,10,6,-3,-8,-14,-11,-42
2025-05-18 17:53:57.136,7,10,6,-3,-8,-14,-11,-42
2025-05-18 17:53:57.147,3,4,6,-3,0,1,-8,31
2025-05-18 17:53:57.159,-5,-8,-13,-3,-2,-3,3,-14
2025-05-18 17:53:57.169,3,1,-4,-2,1,5,3,-17
2025-05-18 17:53:57.179,3,1,-4,-2,1,5,3,-17
2025-05-18 17:53:57.190,6,2,3,2,0,-1,-16,12
2025-05-18 17:53:57.201,6,2,3,2,0,-1,-16,12
2025-05-18 17:53:57.212,-21,-2,4,1,1,4,7,29
2025-05-18 17:53:57.222,-7,-5,4,-3,-2,-11,-12,-16
2025-05-18 17:53:57.233,-29,-7,-1,-4,-2,-4,-37,-60
2025-05-18 17:53:57.244,-2,2,-1,4,4,9,29,35
2025-05-18 17:53:57.255,-2,2,-1,4,4,9,29,35
2025-05-18 17:53:57.266,-4,-3,0,-4,-5,-6,1,-4
2025-05-18 17:53:57.278,24,0,-2,-2,0,2,4,38
2025-05-18 17:53:57.289,-1,1,0,0,1,-4,-3,-22
2025-05-18 17:53:57.299,-1,1,0,0,1,-4,-3,-22
2025-05-18 17:53:57.309,4,-7,-6,1,-1,1,5,-26
2025-05-18 17:53:57.320,4,-7,-6,1,-1,1,5,-26
2025-05-18 17:53:57.331,20,9,5,2,4,7,21,39
2025-05-18 17:53:57.341,20,9,5,2,4,7,21,39
2025-05-18 17:53:57.353,6,0,-4,2,-2,-2,17,43
2025-05-18 17:53:57.364,15,6,3,-4,-3,-5,-13,-18
2025-05-18 17:53:57.375,15,6,3,-4,-3,-5,-13,-18
2025-05-18 17:53:57.386,-9,-7,-4,-3,-1,2,2,-10
2025-05-18 17:53:57.396,-9,-7,-4,-3,-1,2,2,-10
2025-05-18 17:53:57.407,-13,4,1,0,-1,2,-11,-3
2025-05-18 17:53:57.419,-13,4,1,0,-1,2,-11,-3
2025-05-18 17:53:57.430,1,0,2,-3,-2,-4,-13,-4
2025-05-18 17:53:57.441,1,0,2,-3,-2,-4,-13,-4
2025-05-18 17:53:57.452,-3,-15,-9,-3,-1,1,-1,-8
2025-05-18 17:53:57.463,-3,-15,-9,-3,-1,1,-1,-8
2025-05-18 17:53:57.475,-7,5,0,-5,-2,2,2,-19
2025-05-18 17:53:57.487,5,5,-1,-1,-2,-6,-7,24
2025-05-18 17:53:57.498,5,5,-1,-1,-2,-6,-7,24
2025-05-18 17:53:57.507,2,-4,-4,-2,2,8,-1,-30
2025-05-18 17:53:57.519,2,-4,-4,-2,2,8,-1,-30
2025-05-18 17:53:57.531,7,3,-2,-4,-6,-6,6,28
2025-05-18 17:53:57.541,-7,-6,-11,3,2,3,7,5
2025-05-18 17:53:57.552,-4,3,2,5,4,0,9,0
2025-05-18 17:53:57.562,11,-1,-4,1,-1,-2,-12,0
2025-05-18 17:53:57.573,6,2,0,-2,0,0,8,-8
2025-05-18 17:53:57.585,0,-1,0,-4,-1,7,10,64
2025-05-18 17:53:57.595,-11,2,-1,0,-2,-3,5,-21
2025-05-18 17:53:57.606,-1,2,4,1,-4,-4,8,-17
2025-05-18 17:53:57.618,-1,2,4,1,-4,-4,8,-17
2025-05-18 17:53:57.628,-24,-4,-6,0,4,5,2,8
2025-05-18 17:53:57.640,-24,-4,-6,0,4,5,2,8
2025-05-18 17:53:57.651,4,-6,-6,-5,-10,-15,-12,28
2025-05-18 17:53:57.661,4,2,-1,-4,-2,-1,12,-17
2025-05-18 17:53:57.672,-27,-5,-6,3,3,8,5,9
2025-05-18 17:53:57.682,-10,-3,3,-2,-3,-4,6,7
2025-05-18 17:53:57.693,34,8,14,-1,-1,-2,21,0
2025-05-18 17:53:57.705,-13,-3,-12,-1,0,3,10,3
2025-05-18 17:53:57.715,1,1,-1,-2,0,-2,-4,-12
2025-05-18 17:53:57.727,9,2,-3,1,1,2,2,17
2025-05-18 17:53:57.738,9,2,-3,1,1,2,2,17
2025-05-18 17:53:57.749,-20,-1,4,2,1,-2,-3,-6
2025-05-18 17:53:57.760,-20,-1,4,2,1,-2,-3,-6
2025-05-18 17:53:57.772,5,-2,-9,0,2,7,12,55
2025-05-18 17:53:57.783,24,-3,-4,0,-2,-7,-6,-13
2025-05-18 17:53:57.793,-11,0,-3,2,-3,-3,-2,-17
2025-05-18 17:53:57.804,0,4,5,-6,-5,1,-17,-62
2025-05-18 17:53:57.815,0,4,5,-6,-5,1,-17,-62
2025-05-18 17:53:57.827,-3,-4,-4,-3,-5,-1,17,33
2025-05-18 17:53:57.837,-3,-4,-4,-3,-5,-1,17,33
2025-05-18 17:53:57.849,-3,-1,-1,4,4,1,2,-23
2025-05-18 17:53:57.860,-3,-1,-1,4,4,1,2,-23
2025-05-18 17:53:57.871,-23,-4,-6,-5,-1,4,9,-50
2025-05-18 17:53:57.882,-23,-4,-6,-5,-1,4,9,-50
2025-05-18 17:53:57.892,-38,-6,-7,0,-2,0,-2,-60
2025-05-18 17:53:57.904,-7,-1,-10,6,1,1,-2,-4
2025-05-18 17:53:57.915,8,-2,1,-1,-1,-10,-38,-52
2025-05-18 17:53:57.926,25,4,5,-2,-3,1,2,-4
2025-05-18 17:53:57.938,25,4,5,-2,-3,1,2,-4
2025-05-18 17:53:57.949,-11,4,1,-7,-6,-2,0,-18
2025-05-18 17:53:57.960,17,1,1,2,-2,-3,-12,28
2025-05-18 17:53:57.971,23,7,1,-1,0,5,17,63
2025-05-18 17:53:57.983,7,2,2,-2,1,-1,8,38
2025-05-18 17:53:57.994,7,2,2,-2,1,-1,8,38
2025-05-18 17:53:58.005,-2,-3,4,-2,-6,-10,-7,20
2025-05-18 17:53:58.016,-17,0,-4,-3,-3,-1,-6,-30
2025-05-18 17:53:58.027,0,-4,-2,-2,0,0,5,5
2025-05-18 17:53:58.038,0,-4,-2,-2,0,0,5,5
2025-05-18 17:53:58.049,-7,-9,-17,5,2,0,-23,22
2025-05-18 17:53:58.061,-7,-9,-17,5,2,0,-23,22
2025-05-18 17:53:58.072,28,7,4,4,3,4,33,81
2025-05-18 17:53:58.082,2,-3,-5,-2,-2,-1,9,-17
2025-05-18 17:53:58.093,0,-4,-9,-1,-6,-12,-21,-34
2025-05-18 17:53:58.105,-8,1,5,-3,1,3,2,-1
2025-05-18 17:53:58.116,-8,1,5,-3,1,3,2,-1
2025-05-18 17:53:58.127,-6,-4,7,-3,-4,-5,3,82
2025-05-18 17:53:58.136,-6,-4,7,-3,-4,-5,3,82
2025-05-18 17:53:58.146,-10,3,7,-3,-2,-3,-4,34
2025-05-18 17:53:58.157,6,0,2,-2,-4,1,11,15
2025-05-18 17:53:58.169,-11,4,1,-2,-3,-2,6,0
2025-05-18 17:53:58.179,-11,4,1,-2,-3,-2,6,0
2025-05-18 17:53:58.190,-5,2,0,1,1,-2,-20,-76
2025-05-18 17:53:58.201,5,-1,-3,1,3,6,21,44
2025-05-18 17:53:58.212,9,5,4,0,-1,-1,13,34
2025-05-18 17:53:58.223,-3,-5,-9,2,4,3,-5,17
2025-05-18 17:53:58.234,-3,-5,-9,2,4,3,-5,17
2025-05-18 17:53:58.245,-10,2,10,-2,0,0,-5,-17
2025-05-18 17:53:58.257,3,-3,-9,-6,-4,-2,4,-4
2025-05-18 17:53:58.267,-1,-5,-6,-1,-2,-8,-12,-12
2025-05-18 17:53:58.277,-5,-8,-14,1,1,-4,-11,-35
2025-05-18 17:53:58.288,-26,-6,-4,-5,-5,2,-2,18
2025-05-18 17:53:58.299,-26,-6,-4,-5,-5,2,-2,18
2025-05-18 17:53:58.312,9,5,8,-1,2,6,17,22
2025-05-18 17:53:58.322,9,5,8,-1,2,6,17,22
2025-05-18 17:53:58.333,-17,1,0,-4,-2,-1,3,-43
2025-05-18 17:53:58.345,26,3,-1,-1,1,4,13,15
2025-05-18 17:53:58.354,26,3,-1,-1,1,4,13,15
2025-05-18 17:53:58.366,-13,-2,-5,1,-3,-13,-19,23
2025-05-18 17:53:58.377,-13,-2,-5,1,-3,-13,-19,23
2025-05-18 17:53:58.386,-2,-1,6,0,1,3,6,11
2025-05-18 17:53:58.397,27,3,6,2,1,2,35,27
2025-05-18 17:53:58.409,-6,0,3,-9,-8,-10,-15,-4
2025-05-18 17:53:58.421,-6,0,3,-9,-8,-10,-15,-4
2025-05-18 17:53:58.432,-9,-6,0,-1,1,2,-10,-12
2025-05-18 17:53:58.445,-9,-6,0,-1,1,2,-10,-12
2025-05-18 17:53:58.456,25,5,5,6,9,16,5,-32
2025-05-18 17:53:58.467,17,0,-9,1,1,-1,-8,14
2025-05-18 17:53:58.478,11,6,3,1,5,11,15,31
2025-05-18 17:53:58.488,-17,-4,-14,6,4,1,-14,13
2025-05-18 17:53:58.498,-17,-4,-14,6,4,1,-14,13
2025-05-18 17:53:58.509,16,10,12,-2,0,-4,12,5
2025-05-18 17:53:58.520,16,10,12,-2,0,-4,12,5
2025-05-18 17:53:58.532,-10,0,-1,1,-2,2,0,-10
2025-05-18 17:53:58.541,-10,0,-1,1,-2,2,0,-10
2025-05-18 17:53:58.551,-25,-4,-3,-6,-7,-11,-16,-33
2025-05-18 17:53:58.563,-25,-4,-3,-6,-7,-11,-16,-33
2025-05-18 17:53:58.573,-6,0,-1,-4,-3,1,5,5
2025-05-18 17:53:58.586,12,-3,-7,-1,1,3,16,47
2025-05-18 17:53:58.596,-11,-2,-1,0,1,3,-20,-84
2025-05-18 17:53:58.607,-19,-4,-4,-5,-6,-8,0,-39
2025-05-18 17:53:58.619,-19,-4,-4,-5,-6,-8,0,-39
2025-05-18 17:53:58.629,1,0,1,-2,-3,-8,-13,-32
2025-05-18 17:53:58.640,1,0,1,-2,-3,-8,-13,-32
2025-05-18 17:53:58.649,6,3,2,-2,-2,0,13,19
2025-05-18 17:53:58.661,6,3,2,-2,-2,0,13,19
2025-05-18 17:53:58.671,-15,-6,-1,-3,-2,-5,-2,32
2025-05-18 17:53:58.682,-15,-6,-1,-3,-2,-5,-2,32
2025-05-18 17:53:58.693,-5,-5,3,0,-1,0,-19,-34
2025-05-18 17:53:58.705,-25,-6,1,2,-1,-3,-6,-21
2025-05-18 17:53:58.716,16,4,3,4,1,-2,7,36
2025-05-18 17:53:58.727,10,2,2,-2,1,3,6,9
2025-05-18 17:53:58.738,10,2,2,-2,1,3,6,9
2025-05-18 17:53:58.748,-17,-13,-8,-1,-1,-6,-11,-2
2025-05-18 17:53:58.760,-3,5,2,-1,-4,-7,-15,-44
2025-05-18 17:53:58.772,12,3,2,-2,1,0,-6,47
2025-05-18 17:53:58.782,12,3,2,-2,1,0,-6,47
2025-05-18 17:53:58.793,4,-1,-5,-7,-5,-1,1,-4
2025-05-18 17:53:58.804,4,-1,-5,-7,-5,-1,1,-4
2025-05-18 17:53:58.815,-7,0,-3,1,-4,-3,-6,-7
2025-05-18 17:53:58.825,22,-1,2,-4,-5,-3,11,24
2025-05-18 17:53:58.835,-5,1,-2,-2,-3,-2,-2,-3
2025-05-18 17:53:58.845,-15,3,7,1,-3,-4,13,2
2025-05-18 17:53:58.856,-15,-11,-9,4,5,8,10,25
2025-05-18 17:53:58.867,14,-1,-5,2,-1,-11,-8,-22
2025-05-18 17:53:58.877,18,4,7,2,-2,0,10,40
2025-05-18 17:53:58.889,4,-4,-5,-4,0,7,10,-35
2025-05-18 17:53:58.900,4,-4,-5,-4,0,7,10,-35
2025-05-18 17:53:58.910,-2,-2,-4,3,4,4,-20,-21
2025-05-18 17:53:58.921,-2,-2,-4,3,4,4,-20,-21
2025-05-18 17:53:58.931,25,4,-7,-1,-2,-5,7,2
2025-05-18 17:53:58.942,-1,3,4,0,2,4,-4,17
2025-05-18 17:53:58.953,17,-1,1,-1,0,1,21,-21
2025-05-18 17:53:58.964,0,-3,-3,-5,-4,-2,-1,15
2025-05-18 17:53:58.974,-3,1,-3,-4,0,-2,23,42
2025-05-18 17:53:58.984,-3,1,-3,-4,0,-2,23,42
2025-05-18 17:53:58.995,-20,-3,0,1,2,3,-2,-19
2025-05-18 17:53:59.006,-33,-7,-2,0,2,-3,-17,-7
2025-05-18 17:53:59.017,0,-5,-2,1,0,3,-8,22
2025-05-18 17:53:59.027,-22,-3,7,4,2,0,-5,4
2025-05-18 17:53:59.040,-22,-3,7,4,2,0,-5,4
2025-05-18 17:53:59.050,14,5,3,-4,-5,-10,-19,-10
2025-05-18 17:53:59.062,-11,-8,-14,-2,-4,-8,-13,-76
2025-05-18 17:53:59.071,-21,-2,0,-2,-1,-2,-9,-42
2025-05-18 17:53:59.082,-21,-2,0,-2,-1,-2,-9,-42
2025-05-18 17:53:59.092,-2,2,6,-3,-4,-3,-4,-20
2025-05-18 17:53:59.102,-2,2,6,-3,-4,-3,-4,-20
2025-05-18 17:53:59.112,15,0,-6,-4,-3,-1,4,50
2025-05-18 17:53:59.123,7,2,0,2,3,5,9,25
2025-05-18 17:53:59.134,-14,6,1,1,1,-3,2,18
2025-05-18 17:53:59.145,-28,-2,2,1,2,-1,10,30
2025-05-18 17:53:59.155,-7,0,5,-3,-1,-1,-16,-21
2025-05-18 17:53:59.166,-15,-4,4,1,-3,-5,-9,-31
2025-05-18 17:53:59.179,-6,4,8,-6,-3,1,0,23
2025-05-18 17:53:59.189,-2,-5,-6,0,-1,1,9,-26
2025-05-18 17:53:59.199,-2,-5,-6,0,-1,1,9,-26
2025-05-18 17:53:59.210,15,-1,1,3,5,6,8,16
2025-05-18 17:53:59.220,15,-1,1,3,5,6,8,16
2025-05-18 17:53:59.231,4,-1,-8,-4,-2,-7,-3,4
2025-05-18 17:53:59.242,4,-1,-8,-4,-2,-7,-3,4
2025-05-18 17:53:59.253,-6,-12,-22,-3,1,4,16,13
2025-05-18 17:53:59.263,-6,-12,-22,-3,1,4,16,13
2025-05-18 17:53:59.274,8,-2,-1,5,3,2,14,29
2025-05-18 17:53:59.284,8,-2,-1,5,3,2,14,29
2025-05-18 17:53:59.294,-1,3,8,-3,-4,0,-1,-34
2025-05-18 17:53:59.304,-1,3,8,-3,-4,0,-1,-34
2025-05-18 17:53:59.315,11,0,1,-1,-3,-3,12,33
2025-05-18 17:53:59.326,-11,1,1,0,0,1,-15,-10
2025-05-18 17:53:59.337,-11,1,1,0,0,1,-15,-10
2025-05-18 17:53:59.349,-9,0,1,-1,0,-2,-6,22
2025-05-18 17:53:59.359,-9,0,1,-1,0,-2,-6,22
2025-05-18 17:53:59.370,10,-3,-12,-3,-7,-9,17,57
2025-05-18 17:53:59.381,8,-2,-4,-3,-5,-7,2,2
2025-05-18 17:53:59.393,7,-5,-18,-1,1,1,1,12
2025-05-18 17:53:59.404,7,-5,-18,-1,1,1,1,12
2025-05-18 17:53:59.416,39,9,8,8,3,6,-4,47
2025-05-18 17:53:59.427,39,9,8,8,3,6,-4,47
2025-05-18 17:53:59.437,-28,-2,3,-1,0,-1,-3,-12
2025-05-18 17:53:59.449,7,-11,-9,-1,0,5,6,60
2025-05-18 17:53:59.461,-2,0,-4,0,0,-1,2,4
2025-05-18 17:53:59.472,5,5,7,0,-2,1,5,-61
2025-05-18 17:53:59.482,5,5,7,0,-2,1,5,-61
2025-05-18 17:53:59.494,11,-3,-2,-2,2,4,-7,-55
2025-05-18 17:53:59.504,-27,-1,0,3,0,-5,-18,-7
2025-05-18 17:53:59.516,-4,-4,-1,-1,-3,-2,3,44
2025-05-18 17:53:59.526,-4,-4,-1,-1,-3,-2,3,44
2025-05-18 17:53:59.537,-6,1,7,0,1,-7,-4,39
2025-05-18 17:53:59.547,-6,1,7,0,1,-7,-4,39
2025-05-18 17:53:59.557,-7,-5,-9,-3,-4,-2,-4,-76
2025-05-18 17:53:59.568,11,-3,-11,1,5,0,8,17
2025-05-18 17:53:59.579,-16,-6,-4,-7,-8,-8,10,-6
2025-05-18 17:53:59.589,6,3,5,0,3,7,0,21
2025-05-18 17:53:59.600,6,3,5,0,3,7,0,21
2025-05-18 17:53:59.612,9,4,6,-4,-2,-1,-11,17
2025-05-18 17:53:59.622,9,4,6,-4,-2,-1,-11,17
2025-05-18 17:53:59.633,-27,-14,-7,-4,-4,-4,-20,-34
2025-05-18 17:53:59.644,-27,-14,-7,-4,-4,-4,-20,-34
2025-05-18 17:53:59.655,13,-1,-7,-4,-7,-9,-1,-11
2025-05-18 17:53:59.666,13,-1,-7,-4,-7,-9,-1,-11
2025-05-18 17:53:59.676,3,0,-6,2,2,2,-3,25
2025-05-18 17:53:59.687,-1,-1,0,0,-1,-1,5,-4
2025-05-18 17:53:59.698,-1,-2,2,-1,-3,-7,-4,9
2025-05-18 17:53:59.709,9,2,0,2,3,3,-9,-33
2025-05-18 17:53:59.720,9,2,0,2,3,3,-9,-33
2025-05-18 17:53:59.731,-2,3,6,1,2,1,-14,16
2025-05-18 17:53:59.741,-2,3,6,1,2,1,-14,16
2025-05-18 17:53:59.753,3,-3,1,-1,0,-2,-2,30
2025-05-18 17:53:59.764,3,-3,1,-1,0,-2,-2,30
2025-05-18 17:53:59.775,-47,-10,-9,0,0,1,8,-23
2025-05-18 17:53:59.785,-47,-10,-9,0,0,1,8,-23
2025-05-18 17:53:59.797,7,2,11,1,0,4,1,-9
2025-05-18 17:53:59.807,-27,-6,-4,-4,-6,-8,-18,-79
2025-05-18 17:53:59.819,8,7,11,0,0,5,3,-58
2025-05-18 17:53:59.829,6,-1,-6,-1,0,-4,2,4
2025-05-18 17:53:59.841,6,-1,-6,-1,0,-4,2,4
2025-05-18 17:53:59.852,7,6,7,3,-2,-1,-5,-19
2025-05-18 17:53:59.862,7,6,7,3,-2,-1,-5,-19
2025-05-18 17:53:59.872,5,2,3,1,1,-2,11,26
2025-05-18 17:53:59.883,5,2,3,1,1,-2,11,26
2025-05-18 17:53:59.893,21,-1,-5,-1,1,-1,13,49
2025-05-18 17:53:59.905,21,-1,-5,-1,1,-1,13,49
2025-05-18 17:53:59.917,4,-2,-11,-1,-3,-5,-21,-69
2025-05-18 17:53:59.927,17,4,3,3,1,-3,-5,8
2025-05-18 17:53:59.938,1,1,0,-2,-2,2,5,23
2025-05-18 17:53:59.948,2,-7,-11,-1,1,6,3,-6
2025-05-18 17:53:59.959,2,-7,-11,-1,1,6,3,-6
2025-05-18 17:53:59.970,1,3,1,2,-1,-2,-3,5
2025-05-18 17:53:59.981,-16,0,4,1,3,2,-2,-32
2025-05-18 17:53:59.991,-3,-6,-6,-5,1,7,16,1
2025-05-18 17:54:00.002,-7,-1,4,1,-1,-3,2,11
2025-05-18 17:54:00.012,-32,-16,-3,-4,1,-1,4,21
2025-05-18 17:54:00.023,-32,-16,-3,-4,1,-1,4,21
2025-05-18 17:54:00.034,3,-2,-11,-3,-3,-6,-6,42
2025-05-18 17:54:00.045,5,7,0,2,0,1,1,-7
2025-05-18 17:54:00.056,5,-4,-4,0,-4,-5,5,29
2025-05-18 17:54:00.066,2,-2,0,-6,-1,2,6,42
2025-05-18 17:54:00.078,-11,-4,0,0,1,8,2,35
2025-05-18 17:54:00.089,6,6,1,0,-2,-5,-4,-18
2025-05-18 17:54:00.100,-1,-6,-5,-3,0,-5,-5,-57
2025-05-18 17:54:00.111,-7,-1,-4,-2,0,3,7,-1
2025-05-18 17:54:00.122,28,4,-1,-2,-1,3,5,31
2025-05-18 17:54:00.134,8,1,5,2,0,-2,-4,-7
2025-05-18 17:54:00.144,8,1,5,2,0,-2,-4,-7
2025-05-18 17:54:00.156,-5,-3,-2,0,0,-5,-16,-8
2025-05-18 17:54:00.168,-5,-3,-2,0,0,-5,-16,-8
2025-05-18 17:54:00.179,-11,-3,-1,0,0,2,1,-24
2025-05-18 17:54:00.190,43,5,-1,-2,-5,-4,-2,10
2025-05-18 17:54:00.201,43,5,-1,-2,-5,-4,-2,10
2025-05-18 17:54:00.212,-14,1,3,2,4,10,13,16
2025-05-18 17:54:00.222,-14,1,3,2,4,10,13,16
2025-05-18 17:54:00.234,-20,-1,3,0,0,1,0,-30
2025-05-18 17:54:00.245,-20,-1,3,0,0,1,0,-30
2025-05-18 17:54:00.256,12,-1,7,-1,-3,-2,-16,21
2025-05-18 17:54:00.266,12,-1,7,-1,-3,-2,-16,21
2025-05-18 17:54:00.278,20,6,8,4,7,2,2,-10
2025-05-18 17:54:00.289,20,6,8,4,7,2,2,-10
2025-05-18 17:54:00.300,-11,-3,-5,-3,-3,-1,-1,9
2025-05-18 17:54:00.311,-1,2,-4,-3,0,-4,-20,-51
2025-05-18 17:54:00.323,-16,5,0,-3,-4,-1,0,-58
2025-05-18 17:54:00.334,3,0,-1,0,1,1,-19,-27
2025-05-18 17:54:00.344,3,0,-1,0,1,1,-19,-27
2025-05-18 17:54:00.355,-8,-2,0,0,0,-2,-1,22
2025-05-18 17:54:00.368,15,8,6,0,-2,-3,10,63
2025-05-18 17:54:00.378,3,1,-1,3,0,-3,13,73
2025-05-18 17:54:00.388,3,1,-1,3,0,-3,13,73
2025-05-18 17:54:00.400,5,4,6,2,2,7,27,7
2025-05-18 17:54:00.412,5,4,6,2,2,7,27,7
2025-05-18 17:54:00.422,-22,-10,-2,-9,-9,-11,-35,-68
2025-05-18 17:54:00.433,-18,-8,-1,-4,-1,-4,-12,-22
2025-05-18 17:54:00.444,-18,-8,-1,-4,-1,-4,-12,-22
2025-05-18 17:54:00.455,0,-5,-5,-2,1,8,15,14
2025-05-18 17:54:00.467,0,-5,-5,-2,1,8,15,14
2025-05-18 17:54:00.477,-5,-3,-9,3,3,1,6,33
2025-05-18 17:54:00.489,13,4,5,3,0,1,13,59
2025-05-18 17:54:00.499,12,2,2,1,-3,-3,-3,22
2025-05-18 17:54:00.510,-4,0,2,-3,-4,1,-5,1
2025-05-18 17:54:00.520,19,4,1,3,1,-8,-18,-1
2025-05-18 17:54:00.530,19,4,1,3,1,-8,-18,-1
2025-05-18 17:54:00.542,8,-3,2,-2,1,3,25,43
2025-05-18 17:54:00.552,-16,-6,-15,-4,-4,-10,-19,19
2025-05-18 17:54:00.562,-16,-6,-15,-4,-4,-10,-19,19
2025-05-18 17:54:00.574,2,-7,-5,-5,-8,-8,-12,-28
2025-05-18 17:54:00.586,2,-7,-5,-5,-8,-8,-12,-28
2025-05-18 17:54:00.597,-13,-1,5,-2,-2,-2,12,-52
2025-05-18 17:54:00.608,-13,-1,5,-2,-2,-2,12,-52
2025-05-18 17:54:00.619,15,0,-3,0,-2,-2,-8,94
2025-05-18 17:54:00.630,-21,4,10,-3,1,-3,-10,-30
2025-05-18 17:54:00.641,7,1,0,-4,-2,-2,16,19
2025-05-18 17:54:00.651,10,4,-1,0,0,-3,-7,21
2025-05-18 17:54:00.663,-10,2,6,-2,-3,0,-6,9
2025-05-18 17:54:00.673,9,-2,-11,-2,-5,-3,18,2
2025-05-18 17:54:00.682,3,-5,-2,4,4,5,-7,-6
2025-05-18 17:54:00.694,-11,0,7,-1,0,-1,-18,-9
2025-05-18 17:54:00.705,-11,0,7,-1,0,-1,-18,-9
2025-05-18 17:54:00.716,2,-6,-2,1,1,4,0,-35
2025-05-18 17:54:00.726,-2,-7,-17,-1,3,3,1,15
2025-05-18 17:54:00.738,15,7,4,-4,-2,1,4,40
2025-05-18 17:54:00.749,1,-1,2,0,0,-3,-7,1
2025-05-18 17:54:00.761,-12,-6,-7,-1,4,5,14,3
2025-05-18 17:54:00.772,-12,-6,-7,-1,4,5,14,3
2025-05-18 17:54:00.782,-5,-7,-8,2,1,3,6,-8
2025-05-18 17:54:00.793,10,1,-2,-4,-4,-4,6,-11
2025-05-18 17:54:00.803,4,3,-3,2,2,3,-2,-20
2025-05-18 17:54:00.814,12,2,-4,-1,1,-1,-4,-6
2025-05-18 17:54:00.824,12,2,-4,-1,1,-1,-4,-6
2025-05-18 17:54:00.835,-6,-3,-3,2,-2,-1,6,-6
2025-05-18 17:54:00.982,-17,1,8,-2,0,2,-14,-40
2025-05-18 17:54:00.994,9,2,3,1,-1,-3,-12,-7
2025-05-18 17:54:01.005,9,2,3,1,-1,-3,-12,-7
2025-05-18 17:54:01.017,0,0,4,3,1,-2,-11,-22
2025-05-18 17:54:01.028,0,0,4,3,1,-2,-11,-22
2025-05-18 17:54:01.038,24,0,-2,1,1,0,2,35
2025-05-18 17:54:01.049,3,5,-2,0,0,1,-4,2
2025-05-18 17:54:01.059,2,-2,5,1,-2,-7,-14,77
2025-05-18 17:54:01.070,2,-2,5,1,-2,-7,-14,77
2025-05-18 17:54:01.080,-10,-3,-5,-4,-2,-4,8,44
2025-05-18 17:54:01.092,-10,-3,-5,-4,-2,-4,8,44
2025-05-18 17:54:01.102,-4,-8,-7,-1,2,3,7,28
2025-05-18 17:54:01.113,-10,-3,-3,-1,0,0,-9,-55
2025-05-18 17:54:01.124,-10,-3,-3,-1,0,0,-9,-55
2025-05-18 17:54:01.137,26,3,2,-3,-1,1,11,17
2025-05-18 17:54:01.147,26,3,2,-3,-1,1,11,17
2025-05-18 17:54:01.159,4,5,4,3,2,2,0,-35
2025-05-18 17:54:01.170,17,-1,-10,-2,-1,-4,-3,45
2025-05-18 17:54:01.181,17,-1,-10,-2,-1,-4,-3,45
2025-05-18 17:54:01.191,-8,0,2,2,-2,-1,8,-35
2025-05-18 17:54:01.203,-8,0,2,2,-2,-1,8,-35
2025-05-18 17:54:01.214,-26,-4,-5,0,-3,-6,-14,-80
2025-05-18 17:54:01.224,-26,-4,-5,0,-3,-6,-14,-80
2025-05-18 17:54:01.235,15,0,0,0,1,4,-6,-24
2025-05-18 17:54:01.246,15,0,0,0,1,4,-6,-24
2025-05-18 17:54:01.256,4,-4,-2,0,-4,-1,-12,9
2025-05-18 17:54:01.267,4,-4,-2,0,-4,-1,-12,9
2025-05-18 17:54:01.279,-22,-7,-1,-4,-5,-3,2,-44
2025-05-18 17:54:01.289,-8,-11,0,-7,0,5,4,29
2025-05-18 17:54:01.300,-8,-11,0,-7,0,5,4,29
2025-05-18 17:54:01.312,7,15,13,1,4,8,4,32
2025-05-18 17:54:01.322,7,15,13,1,4,8,4,32
2025-05-18 17:54:01.333,-7,-5,-6,-1,1,6,14,36
2025-05-18 17:54:01.345,12,2,6,5,0,0,-4,-3
2025-05-18 17:54:01.356,0,1,0,-2,-3,-3,-2,-4
2025-05-18 17:54:01.366,0,1,0,-2,-3,-3,-2,-4
2025-05-18 17:54:01.377,0,-2,-3,-5,-6,-8,-12,-8
2025-05-18 17:54:01.388,0,-2,-3,-5,-6,-8,-12,-8
2025-05-18 17:54:01.400,-11,4,13,-1,4,3,-4,1
2025-05-18 17:54:01.410,4,-3,-4,-3,0,0,16,21
2025-05-18 17:54:01.421,4,-3,-4,-3,0,0,16,21
2025-05-18 17:54:01.433,9,-3,1,1,0,3,12,48
2025-05-18 17:54:01.444,9,-3,1,1,0,3,12,48
2025-05-18 17:54:01.455,-19,-10,-9,-3,-3,-1,2,13
2025-05-18 17:54:01.465,-19,-10,-9,-3,-3,-1,2,13
2025-05-18 17:54:01.476,15,0,-4,0,1,1,-1,-6
2025-05-18 17:54:01.487,15,0,-4,0,1,1,-1,-6
2025-05-18 17:54:01.499,-2,2,4,1,1,-1,2,-2
2025-05-18 17:54:01.510,-2,2,4,1,1,-1,2,-2
2025-05-18 17:54:01.522,14,-1,-8,0,0,3,-8,8
2025-05-18 17:54:01.534,-1,0,-2,1,4,5,4,8
2025-05-18 17:54:01.544,-2,-5,-8,2,-4,-14,-5,-6
2025-05-18 17:54:01.556,3,-4,-8,-3,-2,-1,-4,7
2025-05-18 17:54:01.567,3,-4,-8,-3,-2,-1,-4,7
2025-05-18 17:54:01.578,-28,1,3,4,1,3,12,19
2025-05-18 17:54:01.589,-1,4,3,-1,-3,-1,-10,-19
2025-05-18 17:54:01.600,-1,4,3,-1,-3,-1,-10,-19
2025-05-18 17:54:01.611,2,4,-1,0,0,-3,4,-35
2025-05-18 17:54:01.622,-10,1,4,-4,1,4,10,5
2025-05-18 17:54:01.634,0,6,12,-5,-3,4,31,-6
2025-05-18 17:54:01.644,-2,-4,-3,0,0,-2,-2,23
2025-05-18 17:54:01.656,22,0,1,0,-1,-6,-21,4
2025-05-18 17:54:01.667,22,0,1,0,-1,-6,-21,4
2025-05-18 17:54:01.677,-11,-8,-3,0,1,0,-19,-69
2025-05-18 17:54:01.689,-11,-8,-3,0,1,0,-19,-69
2025-05-18 17:54:01.699,6,-6,-6,-4,-5,-10,-11,10
2025-05-18 17:54:01.710,3,0,-8,-2,-2,-4,-5,-20
2025-05-18 17:54:01.720,12,5,3,1,-6,-8,15,32
2025-05-18 17:54:01.732,-23,-12,2,-4,-3,4,5,25
2025-05-18 17:54:01.743,-23,-12,2,-4,-3,4,5,25
2025-05-18 17:54:01.754,3,2,2,0,-3,-5,-9,-48
2025-05-18 17:54:01.765,3,2,2,0,-3,-5,-9,-48
2025-05-18 17:54:01.774,-6,3,4,-2,1,4,10,10
2025-05-18 17:54:01.785,3,-2,0,0,-3,-11,-15,-5
2025-05-18 17:54:01.796,-12,-2,-4,1,-4,-6,-5,-7
2025-05-18 17:54:01.807,-12,-2,-4,1,-4,-6,-5,-7
2025-05-18 17:54:01.817,7,-2,-6,1,2,2,-6,-8
2025-05-18 17:54:01.829,-47,-8,-6,-2,-3,-1,-8,-24
2025-05-18 17:54:01.839,-19,2,3,-1,2,4,11,-26
2025-05-18 17:54:01.850,-19,2,3,-1,2,4,11,-26
2025-05-18 17:54:01.861,9,-7,-2,-2,2,8,14,15
2025-05-18 17:54:01.872,9,-7,-2,-2,2,8,14,15
2025-05-18 17:54:01.884,2,1,0,0,2,-1,-11,-27
2025-05-18 17:54:01.895,-29,-8,0,0,-2,-7,-13,4
2025-05-18 17:54:01.905,-4,-5,1,-3,-6,-8,-14,30
2025-05-18 17:54:01.917,11,2,0,-1,-1,-2,-5,-13
2025-05-18 17:54:01.929,11,2,0,-1,-1,-2,-5,-13
2025-05-18 17:54:01.939,24,-3,-3,-4,-3,-2,1,22
2025-05-18 17:54:01.951,-11,0,1,-3,1,-4,12,13
2025-05-18 17:54:01.962,-16,-6,-9,-1,-1,0,-22,-29
2025-05-18 17:54:01.972,2,-2,1,0,-1,1,-8,11
2025-05-18 17:54:01.983,2,-2,1,0,-1,1,-8,11
2025-05-18 17:54:01.995,4,3,3,4,6,10,20,26
2025-05-18 17:54:02.004,4,3,3,4,6,10,20,26
2025-05-18 17:54:02.016,4,3,3,4,6,10,20,26
2025-05-18 17:54:02.027,0,1,0,1,2,2,6,-21
2025-05-18 17:54:02.037,10,-7,0,5,4,3,11,9
2025-05-18 17:54:02.047,10,-7,0,5,4,3,11,9
2025-05-18 17:54:02.059,-8,-5,2,-1,-3,-3,-23,-57
2025-05-18 17:54:02.069,-8,-5,2,-1,-3,-3,-23,-57
2025-05-18 17:54:02.079,-12,-1,-3,1,2,2,-30,16
2025-05-18 17:54:02.090,-12,-1,-3,1,2,2,-30,16
2025-05-18 17:54:02.101,-7,-10,-15,-2,-2,0,2,-46
2025-05-18 17:54:02.111,-7,-10,-15,-2,-2,0,2,-46
2025-05-18 17:54:02.122,0,-4,-9,-4,-3,-5,4,12
2025-05-18 17:54:02.133,0,-4,-9,-4,-3,-5,4,12
2025-05-18 17:54:02.146,-5,-4,5,-4,-3,0,13,31
2025-05-18 17:54:02.155,8,5,2,0,2,2,3,-6
2025-05-18 17:54:02.165,8,5,2,0,2,2,3,-6
2025-05-18 17:54:02.177,-33,-11,5,0,-3,-7,-7,18
2025-05-18 17:54:02.188,-33,-11,5,0,-3,-7,-7,18
2025-05-18 17:54:02.198,16,3,4,1,3,2,-2,6
2025-05-18 17:54:02.209,16,3,4,1,3,2,-2,6
2025-05-18 17:54:02.219,3,1,1,-2,-2,1,-4,-10
2025-05-18 17:54:02.231,3,1,1,-2,-2,1,-4,-10
2025-05-18 17:54:02.241,-4,-1,-7,-1,0,-4,-1,33
2025-05-18 17:54:02.252,-4,-1,-7,-1,0,-4,-1,33
2025-05-18 17:54:02.262,4,1,3,-1,0,3,19,75
2025-05-18 17:54:02.274,-7,3,-2,2,1,2,11,29
2025-05-18 17:54:02.286,-7,3,-2,2,1,2,11,29
2025-05-18 17:54:02.297,5,5,7,0,-1,-3,-17,5
2025-05-18 17:54:02.306,5,5,7,0,-1,-3,-17,5
2025-05-18 17:54:02.318,3,-14,-8,-2,-7,-5,7,31
2025-05-18 17:54:02.329,3,-14,-8,-2,-7,-5,7,31
2025-05-18 17:54:02.342,-3,-2,2,2,0,4,6,-41
2025-05-18 17:54:02.352,-3,-2,2,2,0,4,6,-41
2025-05-18 17:54:02.362,4,-6,3,-1,-2,-10,-8,-51
2025-05-18 17:54:02.374,4,-6,3,-1,-2,-10,-8,-51
2025-05-18 17:54:02.386,3,1,-2,-2,-2,0,-4,2
2025-05-18 17:54:02.396,4,-3,-3,-4,-5,-2,-14,20
2025-05-18 17:54:02.406,4,-3,-3,-4,-5,-2,-14,20
2025-05-18 17:54:02.416,4,4,6,-2,0,1,-6,39
2025-05-18 17:54:02.427,4,4,6,-2,0,1,-6,39
2025-05-18 17:54:02.437,5,-2,-5,-2,-3,-12,-4,-3
2025-05-18 17:54:02.449,5,-2,-5,-2,-3,-12,-4,-3
2025-05-18 17:54:02.460,16,6,0,1,1,3,-4,-30
2025-05-18 17:54:02.471,16,6,0,1,1,3,-4,-30
2025-05-18 17:54:02.481,-11,2,3,3,1,7,27,27
2025-05-18 17:54:02.493,-11,2,3,3,1,7,27,27
2025-05-18 17:54:02.504,4,-5,-5,-1,1,-7,-10,-56
2025-05-18 17:54:02.515,5,-2,-5,0,-1,0,-6,-24
2025-05-18 17:54:02.525,5,-2,-5,0,-1,0,-6,-24
2025-05-18 17:54:02.536,-26,-3,-5,3,2,4,-1,5
2025-05-18 17:54:02.547,-26,-3,-5,3,2,4,-1,5
2025-05-18 17:54:02.558,12,-1,-4,-3,0,-2,8,42
2025-05-18 17:54:02.569,12,-1,-4,-3,0,-2,8,42
2025-05-18 17:54:02.580,5,-2,2,-2,-3,-12,-14,4
2025-05-18 17:54:02.591,5,-2,2,-2,-3,-12,-14,4
2025-05-18 17:54:02.602,-4,-2,0,-3,-4,-5,-21,-60
2025-05-18 17:54:02.613,-4,-2,0,-3,-4,-5,-21,-60
2025-05-18 17:54:02.623,10,2,3,1,-1,4,21,40
2025-05-18 17:54:02.634,1,0,-6,2,1,3,5,-44
2025-05-18 17:54:02.645,1,0,-6,2,1,3,5,-44
2025-05-18 17:54:02.656,-6,-7,-2,-3,-2,-1,-11,-12
2025-05-18 17:54:02.667,-6,-7,-2,-3,-2,-1,-11,-12
2025-05-18 17:54:02.678,8,-2,3,0,0,2,0,3
2025-05-18 17:54:02.687,8,-2,3,0,0,2,0,3
2025-05-18 17:54:02.697,-18,-4,-3,-2,-2,-3,-39,-29
2025-05-18 17:54:02.708,11,5,3,2,1,3,6,7
2025-05-18 17:54:02.719,0,6,5,0,-2,-3,-23,-3
2025-05-18 17:54:02.729,0,6,5,0,-2,-3,-23,-3
2025-05-18 17:54:02.739,-9,-3,4,-4,-4,-7,-7,23
2025-05-18 17:54:02.749,-9,-3,4,-4,-4,-7,-7,23
2025-05-18 17:54:02.760,-17,-5,1,4,0,0,5,-7
2025-05-18 17:54:02.771,-17,-5,1,4,0,0,5,-7
2025-05-18 17:54:02.781,7,1,-2,0,1,6,9,12
2025-05-18 17:54:02.793,7,1,-2,0,1,6,9,12
2025-05-18 17:54:02.803,13,-4,-10,-2,-2,-6,-2,35
2025-05-18 17:54:02.815,-12,-3,0,-5,-1,-3,-9,-3
2025-05-18 17:54:02.825,-18,-3,-2,4,0,2,-2,-30
2025-05-18 17:54:02.836,-6,-12,-5,-2,0,5,-7,-32
2025-05-18 17:54:02.848,-6,-12,-5,-2,0,5,-7,-32
2025-05-18 17:54:02.859,7,-2,-5,-2,2,3,-8,-3
2025-05-18 17:54:02.869,7,-2,-5,-2,2,3,-8,-3
2025-05-18 17:54:02.880,-11,-10,-6,-3,0,-1,-10,15
2025-05-18 17:54:02.890,-11,-10,-6,-3,0,-1,-10,15
2025-05-18 17:54:02.902,-3,1,-2,6,2,6,13,36
2025-05-18 17:54:02.912,-3,1,-2,6,2,6,13,36
2025-05-18 17:54:02.922,13,-3,-11,3,1,-4,-4,28
2025-05-18 17:54:02.932,4,1,-4,0,-3,-6,6,12
2025-05-18 17:54:02.943,-8,2,9,-2,-3,-6,-22,-55
2025-05-18 17:54:02.954,-16,-3,0,-3,-4,-4,-6,-89
2025-05-18 17:54:02.966,-16,-3,0,-3,-4,-4,-6,-89
2025-05-18 17:54:02.976,-1,-3,-2,-2,-2,1,11,-14
2025-05-18 17:54:02.988,-8,-10,-3,1,2,-1,2,55
2025-05-18 17:54:03.000,4,-1,-5,-1,1,-2,3,44
2025-05-18 17:54:03.011,4,-1,-5,-1,1,-2,3,44
2025-05-18 17:54:03.022,24,-7,-10,0,0,2,8,-10
2025-05-18 17:54:03.034,24,-7,-10,0,0,2,8,-10
2025-05-18 17:54:03.045,18,8,7,0,1,4,16,51
2025-05-18 17:54:03.055,18,8,7,0,1,4,16,51
2025-05-18 17:54:03.066,16,4,3,-3,-2,-7,-8,-25
2025-05-18 17:54:03.076,-29,-18,-10,-10,-9,-8,-22,-26
2025-05-18 17:54:03.088,-29,-18,-10,-10,-9,-8,-22,-26
2025-05-18 17:54:03.099,3,0,7,-5,-3,1,0,25
2025-05-18 17:54:03.110,3,0,7,-5,-3,1,0,25
2025-05-18 17:54:03.119,10,7,-2,3,-2,-5,7,59
2025-05-18 17:54:03.129,10,7,-2,3,-2,-5,7,59
2025-05-18 17:54:03.142,-20,-5,7,0,-2,-4,-6,37
2025-05-18 17:54:03.153,-20,-5,7,0,-2,-4,-6,37
2025-05-18 17:54:03.163,5,3,-2,-1,-3,-1,0,4
2025-05-18 17:54:03.173,5,3,-2,-1,-3,-1,0,4
