Timestamp,Pod1,Pod2,Pod3,Pod4,Pod5,Pod6,Pod7,Pod82025-05-18 16:46:52.179,1,-4,-1,0,-1,-1,-1,1
2025-05-18 16:46:52.190,1,-4,-1,0,-1,-1,-1,1
2025-05-18 16:46:52.201,5,5,-2,-1,3,0,1,0
2025-05-18 16:46:52.211,0,-8,0,0,1,-1,-4,0
2025-05-18 16:46:52.223,-14,3,-1,1,0,-2,-4,-3
2025-05-18 16:46:52.233,-14,3,-1,1,0,-2,-4,-3
2025-05-18 16:46:52.246,0,-10,2,2,-2,-1,0,4
2025-05-18 16:46:52.256,0,-10,2,2,-2,-1,0,4
2025-05-18 16:46:52.267,14,17,11,-2,0,-1,-3,0
2025-05-18 16:46:52.277,-14,-25,-23,-1,-1,-1,0,-6
2025-05-18 16:46:52.289,1,-10,5,0,-2,0,-3,0
2025-05-18 16:46:52.298,4,17,5,1,1,0,0,5
2025-05-18 16:46:52.309,4,17,5,1,1,0,0,5
2025-05-18 16:46:52.320,-4,12,-4,1,1,1,2,-2
2025-05-18 16:46:52.332,-16,-23,-9,-2,-1,-4,-7,-11
2025-05-18 16:46:52.342,-16,-23,-9,-2,-1,-4,-7,-11
2025-05-18 16:46:52.354,2,-5,-4,2,-2,-3,-4,4
2025-05-18 16:46:52.366,10,18,4,1,-2,-3,-3,5
2025-05-18 16:46:52.376,10,18,4,1,-2,-3,-3,5
2025-05-18 16:46:52.388,-33,-9,-5,-4,-1,-2,-7,-9
2025-05-18 16:46:52.399,-33,-9,-5,-4,-1,-2,-7,-9
2025-05-18 16:46:52.410,31,51,7,-1,-6,-4,-6,0
2025-05-18 16:46:52.420,-2,-35,-28,-1,1,-2,-3,1
2025-05-18 16:46:52.432,-2,-35,-28,-1,1,-2,-3,1
2025-05-18 16:46:52.443,-7,-17,-3,-2,-1,1,-3,1
2025-05-18 16:46:52.454,-7,-17,-3,-2,-1,1,-3,1
2025-05-18 16:46:52.467,10,6,5,0,0,-1,-4,4
2025-05-18 16:46:52.478,6,-12,6,0,-1,-3,-4,3
2025-05-18 16:46:52.489,6,-12,6,0,-1,-3,-4,3
2025-05-18 16:46:52.500,6,-12,6,0,-1,-3,-4,3
2025-05-18 16:46:52.511,1,-9,-1,-3,-5,-1,-2,5
2025-05-18 16:46:52.521,1,-9,-1,-3,-5,-1,-2,5
2025-05-18 16:46:52.534,5,-33,-6,-2,0,-3,-3,0
2025-05-18 16:46:52.544,26,36,7,1,0,-2,-2,-3
2025-05-18 16:46:52.556,26,36,7,1,0,-2,-2,-3
2025-05-18 16:46:52.566,-40,-50,-21,-7,-2,-4,-3,-3
2025-05-18 16:46:52.576,-40,-50,-21,-7,-2,-4,-3,-3
2025-05-18 16:46:52.587,10,25,12,3,-1,0,-3,9
2025-05-18 16:46:52.598,5,-2,-1,0,2,-2,-2,4
2025-05-18 16:46:52.610,5,-2,-1,0,2,-2,-2,4
2025-05-18 16:46:52.620,23,17,1,0,-2,-2,-3,6
2025-05-18 16:46:52.631,23,17,1,0,-2,-2,-3,6
2025-05-18 16:46:52.643,23,17,1,0,-2,-2,-3,6
2025-05-18 16:46:52.655,-18,-3,1,-2,-3,-2,-9,-9
2025-05-18 16:46:52.667,-18,-24,-9,-2,-6,-4,-3,-14
2025-05-18 16:46:52.678,-18,-24,-9,-2,-6,-4,-3,-14
2025-05-18 16:46:52.689,4,4,4,2,3,-3,-4,2
2025-05-18 16:46:52.700,4,4,4,2,3,-3,-4,2
2025-05-18 16:46:52.712,-12,-32,-14,-5,0,6,-12,-15
2025-05-18 16:46:52.724,5,7,-5,2,-1,-32,1,4
2025-05-18 16:46:52.734,5,7,-5,2,-1,-32,1,4
2025-05-18 16:46:52.745,-1,5,2,-2,-3,-17,-4,1
2025-05-18 16:46:52.756,-1,5,2,-2,-3,-17,-4,1
2025-05-18 16:46:52.766,12,23,0,7,4,37,3,-1
2025-05-18 16:46:52.777,12,23,0,7,4,37,3,-1
2025-05-18 16:46:52.789,-30,-3,-4,3,-1,-1,-4,-3
2025-05-18 16:46:52.800,-17,29,-1,-3,-4,2,-11,1
2025-05-18 16:46:52.812,26,-29,-8,-9,-2,-4,-3,7
2025-05-18 16:46:52.824,-8,-23,-2,-2,0,29,7,28
2025-05-18 16:46:52.834,-10,17,-4,2,1,-10,-3,-3
2025-05-18 16:46:52.846,-2,-30,-15,-1,-1,9,-6,-4
2025-05-18 16:46:52.857,-2,-30,-15,-1,-1,9,-6,-4
2025-05-18 16:46:52.868,-5,4,16,0,-1,-11,-12,2
2025-05-18 16:46:52.878,-5,4,16,0,-1,-11,-12,2
2025-05-18 16:46:52.890,23,53,19,5,0,1,10,12
2025-05-18 16:46:52.900,-9,-23,-4,3,4,-4,-4,-1
2025-05-18 16:46:52.912,-9,-23,-4,3,4,-4,-4,-1
2025-05-18 16:46:52.922,-22,-62,-5,-6,-1,-16,2,1
2025-05-18 16:46:52.933,-22,-62,-5,-6,-1,-16,2,1
2025-05-18 16:46:52.942,-19,-24,-10,-2,0,3,8,11
2025-05-18 16:46:52.952,8,4,-5,-2,-8,-41,-5,-6
2025-05-18 16:46:52.964,24,21,-4,2,-3,-27,-10,-37
2025-05-18 16:46:52.975,4,25,-2,2,2,17,13,6
2025-05-18 16:46:52.986,1,41,-4,15,2,-9,-2,-16
2025-05-18 16:46:52.998,1,41,-4,15,2,-9,-2,-16
2025-05-18 16:46:53.009,11,34,3,1,-1,12,5,5
2025-05-18 16:46:53.020,1,-52,-13,-3,-4,-11,-2,11
2025-05-18 16:46:53.031,6,21,11,-5,1,9,-5,4
2025-05-18 16:46:53.042,26,35,17,1,4,40,12,16
2025-05-18 16:46:53.054,26,35,17,1,4,40,12,16
2025-05-18 16:46:53.066,-16,-52,-11,-6,-1,-12,-7,-6
2025-05-18 16:46:53.076,-16,-52,-11,-6,-1,-12,-7,-6
2025-05-18 16:46:53.088,16,39,-4,-4,-6,-2,-4,-13
2025-05-18 16:46:53.098,16,39,-4,-4,-6,-2,-4,-13
2025-05-18 16:46:53.109,-53,-11,-16,-7,-5,17,4,-3
2025-05-18 16:46:53.120,-53,-11,-16,-7,-5,17,4,-3
2025-05-18 16:46:53.130,-7,-36,-3,-5,0,-21,-2,17
2025-05-18 16:46:53.141,-18,-14,-12,10,3,5,-4,4
2025-05-18 16:46:53.152,-4,5,-15,-5,-3,13,-7,-12
2025-05-18 16:46:53.162,12,49,0,1,-1,-2,-4,-6
2025-05-18 16:46:53.174,12,49,0,1,-1,-2,-4,-6
2025-05-18 16:46:53.184,-57,-128,-47,-12,-3,1,-4,-19
2025-05-18 16:46:53.195,-25,-1,3,-8,-4,33,3,-13
2025-05-18 16:46:53.205,10,-37,-3,5,0,-19,-2,-2
2025-05-18 16:46:53.216,10,-37,-3,5,0,-19,-2,-2
2025-05-18 16:46:53.227,33,35,7,3,4,-3,3,8
2025-05-18 16:46:53.237,33,35,7,3,4,-3,3,8
2025-05-18 16:46:53.248,-9,-36,-12,-7,-8,-10,-4,-13
2025-05-18 16:46:53.260,25,5,3,-4,-4,2,-3,-4
2025-05-18 16:46:53.271,-23,-41,-7,3,-3,-15,-13,-9
2025-05-18 16:46:53.282,-18,-25,3,-3,-9,-11,1,2
2025-05-18 16:46:53.293,-18,-25,3,-3,-9,-11,1,2
2025-05-18 16:46:53.304,6,19,4,2,1,4,9,3
2025-05-18 16:46:53.314,6,19,4,2,1,4,9,3
2025-05-18 16:46:53.326,14,21,8,2,1,1,-3,13
2025-05-18 16:46:53.337,-6,-77,-8,1,2,2,-2,-3
2025-05-18 16:46:53.349,-4,5,7,0,-4,-6,-2,-3
2025-05-18 16:46:53.359,-4,5,7,0,-4,-6,-2,-3
2025-05-18 16:46:53.370,-1,4,4,6,3,7,1,-1
2025-05-18 16:46:53.379,-1,4,4,6,3,7,1,-1
2025-05-18 16:46:53.391,-42,-22,-15,-7,-2,23,-4,-16
2025-05-18 16:46:53.403,0,29,-1,-3,-1,-15,-1,0
2025-05-18 16:46:53.412,0,29,-1,-3,-1,-15,-1,0
2025-05-18 16:46:53.424,-8,14,-2,0,2,17,7,-31
2025-05-18 16:46:53.434,-8,14,-2,0,2,17,7,-31
2025-05-18 16:46:53.445,-8,14,-2,0,2,17,7,-31
2025-05-18 16:46:53.457,5,-23,-5,2,-1,-17,-1,15
2025-05-18 16:46:53.468,29,58,15,-3,-1,-7,5,9
2025-05-18 16:46:53.478,29,58,15,-3,-1,-7,5,9
2025-05-18 16:46:53.488,26,16,-7,-10,-3,12,1,-8
2025-05-18 16:46:53.498,26,16,-7,-10,-3,12,1,-8
2025-05-18 16:46:53.510,10,39,3,1,0,-4,0,8
2025-05-18 16:46:53.520,-10,-45,-5,1,0,0,2,-4
2025-05-18 16:46:53.531,-15,-1,-16,-5,-3,-7,0,-2
2025-05-18 16:46:53.542,-15,-1,-16,-5,-3,-7,0,-2
2025-05-18 16:46:53.554,-12,-24,-13,-1,-2,-6,2,4
2025-05-18 16:46:53.564,-12,-24,-13,-1,-2,-6,2,4
2025-05-18 16:46:53.575,-27,-18,-5,-2,-3,-8,-4,-10
2025-05-18 16:46:53.587,10,10,3,1,2,-5,-1,4
2025-05-18 16:46:53.597,10,10,3,1,2,-5,-1,4
2025-05-18 16:46:53.608,21,16,12,4,0,8,4,-13
2025-05-18 16:46:53.619,21,16,12,4,0,8,4,-13
2025-05-18 16:46:53.631,-1,-9,-1,-1,-1,-2,0,7
2025-05-18 16:46:53.641,-11,-12,-3,-2,-2,-8,-2,15
2025-05-18 16:46:53.652,-11,-12,-3,-2,-2,-8,-2,15
2025-05-18 16:46:53.663,-11,-12,-3,-2,-2,-8,-2,15
2025-05-18 16:46:53.674,-53,-32,-9,-8,-4,8,-2,-20
2025-05-18 16:46:53.686,-53,-32,-9,-8,-4,8,-2,-20
2025-05-18 16:46:53.695,10,-14,-11,-1,-7,-13,-2,-2
2025-05-18 16:46:53.707,-7,-13,-3,-2,2,5,4,-4
2025-05-18 16:46:53.717,-7,-13,-3,-2,2,5,4,-4
2025-05-18 16:46:53.728,11,28,8,1,0,-5,3,2
2025-05-18 16:46:53.739,11,28,8,1,0,-5,3,2
2025-05-18 16:46:53.749,6,-7,0,1,-2,9,4,-7
2025-05-18 16:46:53.761,8,28,3,3,1,4,1,3
2025-05-18 16:46:53.772,-13,0,-4,-4,-4,-7,-4,27
2025-05-18 16:46:53.783,-36,-54,-11,-3,-1,5,-4,-3
2025-05-18 16:46:53.794,-5,-1,-2,-2,4,0,2,-11
2025-05-18 16:46:53.806,33,22,0,1,0,0,1,8
2025-05-18 16:46:53.816,-8,12,1,-3,-5,-1,0,-13
2025-05-18 16:46:53.828,3,35,10,2,-1,-2,2,-7
2025-05-18 16:46:53.838,3,35,10,2,-1,-2,2,-7
2025-05-18 16:46:53.850,6,31,-1,-7,-5,-4,0,5
2025-05-18 16:46:53.860,6,31,-1,-7,-5,-4,0,5
2025-05-18 16:46:53.870,-25,-12,-5,-2,1,0,2,-16
2025-05-18 16:46:53.881,-27,-75,-32,-9,-5,8,-5,-7
2025-05-18 16:46:53.892,12,19,5,0,-2,-1,5,-3
2025-05-18 16:46:53.902,12,19,5,0,-2,-1,5,-3
2025-05-18 16:46:53.914,-5,-38,-22,-4,-4,-1,1,-12
2025-05-18 16:46:53.925,-5,-38,-22,-4,-4,-1,1,-12
2025-05-18 16:46:53.935,-17,-47,-5,-2,-4,-5,-4,-1
2025-05-18 16:46:53.947,-31,-16,4,-1,-4,-6,-4,15
2025-05-18 16:46:53.959,-17,-63,-11,-6,-5,-5,2,-9
2025-05-18 16:46:53.968,-8,-6,1,-2,-2,-1,0,-4
2025-05-18 16:46:53.979,-8,-6,1,-2,-2,-1,0,-4
2025-05-18 16:46:53.990,-37,-42,-5,-7,-5,-2,1,-16
2025-05-18 16:46:54.001,16,49,4,2,1,1,0,0
2025-05-18 16:46:54.011,4,54,9,2,3,4,5,7
2025-05-18 16:46:54.022,4,54,9,2,3,4,5,7
2025-05-18 16:46:54.033,32,52,-6,-1,-1,0,11,6
2025-05-18 16:46:54.044,32,52,-6,-1,-1,0,11,6
2025-05-18 16:46:54.055,-11,9,-1,-2,-2,-6,-3,-26
2025-05-18 16:46:54.066,16,-19,11,2,-1,2,-3,10
2025-05-18 16:46:54.077,34,55,16,6,5,5,6,6
2025-05-18 16:46:54.086,-8,11,-8,-5,-7,-2,-2,-2
2025-05-18 16:46:54.098,-8,11,-8,-5,-7,-2,-2,-2
2025-05-18 16:46:54.108,-24,-42,-7,-2,-3,2,6,-13
2025-05-18 16:46:54.120,16,38,12,-1,-2,1,-1,-2
2025-05-18 16:46:54.130,-20,-3,-8,-2,0,-3,1,-2
2025-05-18 16:46:54.141,-20,-3,-8,-2,0,-3,1,-2
2025-05-18 16:46:54.152,12,-8,-6,1,-2,-6,1,9
2025-05-18 16:46:54.163,12,-8,-6,1,-2,-6,1,9
2025-05-18 16:46:54.173,18,40,2,-1,0,2,3,0
2025-05-18 16:46:54.183,9,-33,0,0,3,-2,-1,8
2025-05-18 16:46:54.195,-1,14,11,1,5,-2,-2,1
2025-05-18 16:46:54.206,-53,-6,-6,-4,-2,3,2,-8
2025-05-18 16:46:54.216,-53,-6,-6,-4,-2,3,2,-8
2025-05-18 16:46:54.227,13,55,4,-1,-1,1,-2,8
2025-05-18 16:46:54.237,20,36,12,6,-1,-1,5,2
2025-05-18 16:46:54.248,-25,-12,2,-1,-2,0,-1,-2
2025-05-18 16:46:54.259,-25,-12,2,-1,-2,0,-1,-2
2025-05-18 16:46:54.269,1,-10,-10,-3,-2,1,2,-5
2025-05-18 16:46:54.280,1,-10,-10,-3,-2,1,2,-5
2025-05-18 16:46:54.291,18,31,12,2,0,2,6,25
2025-05-18 16:46:54.301,18,31,12,2,0,2,6,25
2025-05-18 16:46:54.312,34,13,-9,-5,-4,-5,-2,-1
2025-05-18 16:46:54.323,2,38,7,-2,-2,-2,-2,6
2025-05-18 16:46:54.334,-24,-26,-2,-2,1,-1,2,-17
2025-05-18 16:46:54.344,-24,-26,-2,-2,1,-1,2,-17
2025-05-18 16:46:54.355,-17,-28,-8,-6,-10,-4,3,12
2025-05-18 16:46:54.366,-17,-28,-8,-6,-10,-4,3,12
2025-05-18 16:46:54.376,5,2,3,0,1,1,1,-32
2025-05-18 16:46:54.388,-2,19,-6,-8,-4,-3,4,-5
2025-05-18 16:46:54.398,-2,19,-6,-8,-4,-3,4,-5
2025-05-18 16:46:54.410,13,21,-6,3,6,0,6,3
2025-05-18 16:46:54.420,13,21,-6,3,6,0,6,3
2025-05-18 16:46:54.431,17,21,6,-4,1,3,1,2
2025-05-18 16:46:54.443,-1,-32,-5,2,2,-1,-1,4
2025-05-18 16:46:54.453,-7,-5,-8,-6,-6,-1,0,-17
2025-05-18 16:46:54.463,-7,-5,-8,-6,-6,-1,0,-17
2025-05-18 16:46:54.475,-10,-73,-7,-1,-1,0,5,8
2025-05-18 16:46:54.485,-10,-73,-7,-1,-1,0,5,8
2025-05-18 16:46:54.496,-4,23,4,2,0,-3,3,-5
2025-05-18 16:46:54.508,15,14,-3,3,-1,1,-5,-3
2025-05-18 16:46:54.518,-14,-34,-15,-1,-1,4,1,-5
2025-05-18 16:46:54.529,-17,32,6,-2,-4,-1,1,1
2025-05-18 16:46:54.540,-17,32,6,-2,-4,-1,1,1
2025-05-18 16:46:54.550,-22,-15,-1,-1,3,4,4,-14
2025-05-18 16:46:54.560,-22,-15,-1,-1,3,4,4,-14
2025-05-18 16:46:54.571,-29,-17,-5,-4,1,-7,3,4
2025-05-18 16:46:54.582,-29,-17,-5,-4,1,-7,3,4
2025-05-18 16:46:54.593,5,7,0,4,-1,-1,5,-7
2025-05-18 16:46:54.603,5,7,0,4,-1,-1,5,-7
2025-05-18 16:46:54.613,-18,18,-4,-5,-5,0,0,-11
2025-05-18 16:46:54.626,7,1,8,2,-5,-3,-4,8
2025-05-18 16:46:54.636,5,34,3,-1,-2,2,2,1
2025-05-18 16:46:54.646,-9,-36,-10,-5,-2,-3,-5,0
2025-05-18 16:46:54.656,5,9,7,3,4,4,4,1
2025-05-18 16:46:54.666,5,9,7,3,4,4,4,1
2025-05-18 16:46:54.678,-4,-2,-6,-8,-3,-2,2,-8
2025-05-18 16:46:54.687,15,39,10,7,7,0,-3,5
2025-05-18 16:46:54.698,24,40,12,3,-2,2,7,5
2025-05-18 16:46:54.708,-9,26,1,-2,1,0,2,-4
2025-05-18 16:46:54.719,-9,26,1,-2,1,0,2,-4
2025-05-18 16:46:54.729,23,41,16,2,-2,-3,-7,0
2025-05-18 16:46:54.740,-6,2,-6,-4,-4,-2,-2,-4
2025-05-18 16:46:54.751,4,3,1,4,-1,2,3,0
2025-05-18 16:46:54.761,4,3,1,4,-1,2,3,0
2025-05-18 16:46:54.772,-30,-34,-4,-1,-1,0,0,-17
2025-05-18 16:46:54.782,-30,-34,-4,-1,-1,0,0,-17
2025-05-18 16:46:54.793,4,-42,-1,0,-1,1,5,5
2025-05-18 16:46:54.804,-2,4,4,-6,-5,-1,-2,2
2025-05-18 16:46:54.815,-3,-5,3,0,-3,4,4,-3
2025-05-18 16:46:54.825,-3,-5,3,0,-3,4,4,-3
2025-05-18 16:46:54.836,-30,-12,-9,-6,-2,-2,3,-10
2025-05-18 16:46:54.846,-30,-12,-9,-6,-2,-2,3,-10
2025-05-18 16:46:54.857,27,13,-2,1,2,-3,1,6
2025-05-18 16:46:54.867,-15,-40,-9,-1,-2,-2,-3,-1
2025-05-18 16:46:54.878,-13,-20,-11,-8,-5,-3,-3,-4
2025-05-18 16:46:54.889,8,14,-1,-6,1,-1,2,2
2025-05-18 16:46:54.900,8,14,-1,-6,1,-1,2,2
2025-05-18 16:46:54.911,-22,-47,-8,-5,-5,-3,-1,-18
2025-05-18 16:46:54.922,-22,-47,-8,-5,-5,-3,-1,-18
2025-05-18 16:46:54.933,-25,34,2,0,0,2,2,22
2025-05-18 16:46:54.943,-25,34,2,0,0,2,2,22
2025-05-18 16:46:54.955,-2,20,2,-4,-4,0,2,-4
2025-05-18 16:46:54.966,-2,20,2,-4,-4,0,2,-4
2025-05-18 16:46:54.977,14,35,5,3,-1,-1,4,-2
2025-05-18 16:46:54.987,0,-13,6,3,0,1,-5,-3
2025-05-18 16:46:54.998,-18,21,-5,8,1,1,2,-12
2025-05-18 16:46:55.010,8,23,1,-5,-2,-3,1,-2
2025-05-18 16:46:55.020,8,23,1,-5,-2,-3,1,-2
2025-05-18 16:46:55.031,-5,-58,-10,-7,-2,1,1,-13
2025-05-18 16:46:55.042,-5,-58,-10,-7,-2,1,1,-13
2025-05-18 16:46:55.051,4,0,4,0,0,-2,0,-4
2025-05-18 16:46:55.062,4,0,4,0,0,-2,0,-4
2025-05-18 16:46:55.072,18,16,-4,-3,0,-6,3,-2
2025-05-18 16:46:55.084,18,16,-4,-3,0,-6,3,-2
2025-05-18 16:46:55.094,20,-8,-1,-2,0,2,0,-1
2025-05-18 16:46:55.105,-6,-9,5,4,1,0,-6,-5
2025-05-18 16:46:55.117,-8,39,6,-1,3,-1,1,1
2025-05-18 16:46:55.126,-11,-53,-8,-4,-1,0,-2,-5
2025-05-18 16:46:55.138,-20,0,-2,-4,-3,0,1,2
2025-05-18 16:46:55.149,-4,8,-6,-1,2,-2,-3,-2
2025-05-18 16:46:55.160,-9,0,-4,-3,1,2,0,-8
2025-05-18 16:46:55.170,-40,-24,-12,-3,-2,-4,-5,13
2025-05-18 16:46:55.182,-3,13,5,-1,-3,0,4,2
2025-05-18 16:46:55.193,-1,-24,-10,-6,-4,3,4,4
2025-05-18 16:46:55.204,-1,-24,-10,-6,-4,3,4,4
2025-05-18 16:46:55.214,25,35,2,-1,0,0,2,-7
2025-05-18 16:46:55.226,25,35,2,-1,0,0,2,-7
2025-05-18 16:46:55.237,-15,10,2,-2,1,0,-3,-26
2025-05-18 16:46:55.247,4,-2,-5,-3,-4,-5,-8,-5
2025-05-18 16:46:55.257,-6,-2,-1,-2,-4,2,10,-4
2025-05-18 16:46:55.268,-6,-2,-1,-2,-4,2,10,-4
2025-05-18 16:46:55.279,-18,15,5,-3,-2,-1,-1,21
2025-05-18 16:46:55.290,-18,15,5,-3,-2,-1,-1,21
2025-05-18 16:46:55.301,-18,-31,-8,-1,-1,-2,0,3
2025-05-18 16:46:55.312,5,-10,-4,-1,1,-1,-2,2
2025-05-18 16:46:55.324,5,-10,-4,-1,1,-1,-2,2
2025-05-18 16:46:55.338,19,10,1,1,4,-1,3,0
2025-05-18 16:46:55.348,19,10,1,1,4,-1,3,0
2025-05-18 16:46:55.358,3,12,1,-2,-2,-1,0,-5
2025-05-18 16:46:55.368,-25,-4,3,2,2,-2,-4,0
2025-05-18 16:46:55.379,-5,-41,-6,-3,-1,-2,3,-7
2025-05-18 16:46:55.388,12,1,-2,2,-1,2,0,5
2025-05-18 16:46:55.399,-15,-40,-7,-4,-1,1,-1,9
2025-05-18 16:46:55.411,1,-8,1,1,0,-7,-5,-2
2025-05-18 16:46:55.422,-7,-18,-2,2,-3,-1,1,-8
2025-05-18 16:46:55.432,0,-7,-3,1,-1,-2,1,-5
2025-05-18 16:46:55.443,0,-7,-3,1,-1,-2,1,-5
2025-05-18 16:46:55.453,9,45,9,2,2,2,2,25
2025-05-18 16:46:55.464,9,45,9,2,2,2,2,25
2025-05-18 16:46:55.474,-4,7,2,2,1,-2,4,0
2025-05-18 16:46:55.485,-8,-29,-5,-5,-2,-4,-10,-4
2025-05-18 16:46:55.497,19,27,4,-2,-1,1,3,-6
2025-05-18 16:46:55.508,18,8,3,-3,-5,0,0,10
2025-05-18 16:46:55.520,24,22,3,-1,2,4,5,-3
2025-05-18 16:46:55.532,1,-31,-7,-1,-3,-3,-3,3
2025-05-18 16:46:55.542,-23,16,-1,-3,-2,-1,1,-9
2025-05-18 16:46:55.553,-4,4,-6,-2,1,6,-1,-10
2025-05-18 16:46:55.565,-4,4,-6,-2,1,6,-1,-10
2025-05-18 16:46:55.575,-66,-83,-24,-6,-3,-4,-2,-14
2025-05-18 16:46:55.586,-66,-83,-24,-6,-3,-4,-2,-14
2025-05-18 16:46:55.596,17,-11,2,-1,3,3,2,0
2025-05-18 16:46:55.610,-16,-2,3,11,2,-3,-6,-11
2025-05-18 16:46:55.622,2,32,12,4,3,-3,5,1
2025-05-18 16:46:55.633,4,-36,-11,-6,-4,-3,1,-4
2025-05-18 16:46:55.644,4,-36,-11,-6,-4,-3,1,-4
2025-05-18 16:46:55.655,22,33,8,0,-8,-1,2,5
2025-05-18 16:46:55.667,-7,-20,-7,-3,-3,-2,-3,-6
2025-05-18 16:46:55.678,-15,-38,-9,-6,0,2,-3,-9
2025-05-18 16:46:55.692,-7,-8,-8,-10,-12,-6,-2,-5
2025-05-18 16:46:55.704,-7,-8,-8,-10,-12,-6,-2,-5
2025-05-18 16:46:55.716,16,-1,7,3,2,3,3,-1
2025-05-18 16:46:55.727,-8,-27,-5,-1,-1,-6,-2,6
2025-05-18 16:46:55.737,-6,12,5,-2,-2,-2,-3,-4
2025-05-18 16:46:55.750,-7,-9,0,-1,1,1,2,-8
2025-05-18 16:46:55.762,-7,-9,0,-1,1,1,2,-8
2025-05-18 16:46:55.773,23,43,11,-1,0,-2,0,1
2025-05-18 16:46:55.783,23,43,11,-1,0,-2,0,1
2025-05-18 16:46:55.793,-14,4,19,10,6,0,-1,3
2025-05-18 16:46:55.804,-14,11,1,-2,0,2,1,0
2025-05-18 16:46:55.816,9,-7,-3,0,-4,-7,-2,6
2025-05-18 16:46:55.827,9,-7,-3,0,-4,-7,-2,6
2025-05-18 16:46:55.838,20,32,5,0,-1,2,1,8
2025-05-18 16:46:55.850,15,-35,-7,-3,-5,1,-7,28
2025-05-18 16:46:55.860,-11,-11,-1,5,2,-2,0,-1
2025-05-18 16:46:55.872,-8,-20,-4,4,0,-1,-1,1
2025-05-18 16:46:55.883,-8,-20,-4,4,0,-1,-1,1
2025-05-18 16:46:55.893,9,-20,-7,-4,0,0,2,-9
2025-05-18 16:46:55.904,2,-12,-4,-2,-3,-2,-3,-8
2025-05-18 16:46:55.916,-27,-18,-9,-3,0,2,0,-3
2025-05-18 16:46:55.928,-27,-18,-9,-3,0,2,0,-3
2025-05-18 16:46:55.941,7,27,5,-5,-4,-8,-2,-8
2025-05-18 16:46:55.951,-11,-3,0,0,0,-2,-4,-6
2025-05-18 16:46:55.962,-18,-10,-7,-5,-2,4,-1,-3
2025-05-18 16:46:55.972,15,17,3,0,3,-1,-4,-1
2025-05-18 16:46:55.983,3,-16,0,-4,0,-1,0,-8
2025-05-18 16:46:55.995,-21,-41,-2,-1,-3,0,-3,-8
2025-05-18 16:46:56.005,-21,-41,-2,-1,-3,0,-3,-8
2025-05-18 16:46:56.016,12,12,0,3,2,2,1,6
2025-05-18 16:46:56.027,-7,-3,-3,7,4,0,-2,-3
2025-05-18 16:46:56.038,12,63,6,0,4,6,7,6
2025-05-18 16:46:56.048,-14,-6,2,1,2,-6,-4,-2
2025-05-18 16:46:56.060,9,35,-1,2,4,1,0,4
2025-05-18 16:46:56.070,17,16,1,-2,-4,-2,-2,-4
2025-05-18 16:46:56.082,-21,3,3,-4,-4,-2,0,24
2025-05-18 16:46:56.093,-4,-2,2,-2,-4,-2,-1,-3
2025-05-18 16:46:56.104,-4,-2,2,-2,-4,-2,-1,-3
2025-05-18 16:46:56.116,7,-24,0,0,-1,1,1,-5
2025-05-18 16:46:56.127,7,-24,0,0,-1,1,1,-5
2025-05-18 16:46:56.138,-1,1,-2,1,0,-8,-1,-7
2025-05-18 16:46:56.150,-1,1,-2,1,0,-8,-1,-7
2025-05-18 16:46:56.161,9,-12,-1,-1,3,3,2,2
2025-05-18 16:46:56.174,-1,-25,5,0,-4,-2,-2,-4
2025-05-18 16:46:56.184,-1,-25,5,0,-4,-2,-2,-4
2025-05-18 16:46:56.195,11,20,3,-1,-3,-1,-2,4
2025-05-18 16:46:56.205,11,20,3,-1,-3,-1,-2,4
2025-05-18 16:46:56.216,8,28,4,4,1,0,0,5
2025-05-18 16:46:56.227,8,28,4,4,1,0,0,5
2025-05-18 16:46:56.239,-34,-8,-8,1,1,2,-2,-9
2025-05-18 16:46:56.249,-34,-8,-8,1,1,2,-2,-9
2025-05-18 16:46:56.260,16,-5,12,-4,-3,0,1,6
2025-05-18 16:46:56.272,16,-5,12,-4,-3,0,1,6
2025-05-18 16:46:56.282,-5,19,-5,-2,2,-1,0,-4
2025-05-18 16:46:56.293,-3,-25,-10,-4,-2,-3,-3,-2
2025-05-18 16:46:56.304,-3,-25,-10,-4,-2,-3,-3,-2
2025-05-18 16:46:56.314,26,17,-2,0,6,2,-1,-20
2025-05-18 16:46:56.326,26,17,-2,0,6,2,-1,-20
2025-05-18 16:46:56.338,12,-8,4,3,-2,-1,1,7
2025-05-18 16:46:56.350,29,7,-1,0,3,1,2,6
2025-05-18 16:46:56.361,-16,10,6,2,-1,2,-1,0
2025-05-18 16:46:56.371,14,23,8,1,-4,-1,3,7
2025-05-18 16:46:56.382,-2,11,-1,-2,-1,-2,-4,-2
2025-05-18 16:46:56.393,-18,10,3,2,-1,-1,-2,20
2025-05-18 16:46:56.405,-9,-14,4,3,5,5,0,5
2025-05-18 16:46:56.416,-9,-3,-9,-5,-8,-10,-3,-1
2025-05-18 16:46:56.426,-9,-3,-9,-5,-8,-10,-3,-1
2025-05-18 16:46:56.438,0,6,-7,-7,-3,-1,-2,-7
2025-05-18 16:46:56.450,0,6,-7,-7,-3,-1,-2,-7
2025-05-18 16:46:56.461,6,-23,-8,-2,-2,0,-3,-1
2025-05-18 16:46:56.472,9,2,3,-7,-4,1,-3,-34
2025-05-18 16:46:56.484,26,19,6,-2,-2,-1,1,12
2025-05-18 16:46:56.496,10,2,3,1,-2,-3,-4,-5
2025-05-18 16:46:56.508,10,2,3,1,-2,-3,-4,-5
2025-05-18 16:46:56.518,-21,-17,-7,-3,2,2,0,4
2025-05-18 16:46:56.528,-10,28,-1,-1,-3,-5,-4,-4
2025-05-18 16:46:56.539,-10,19,2,1,0,-2,1,31
2025-05-18 16:46:56.551,12,24,-7,3,5,0,4,5
2025-05-18 16:46:56.563,-19,-19,-5,1,-1,1,-1,-2
2025-05-18 16:46:56.573,-19,-19,-5,1,-1,1,-1,-2
2025-05-18 16:46:56.583,12,-12,-12,4,4,2,0,-8
2025-05-18 16:46:56.596,6,-8,1,0,1,1,-5,-14
2025-05-18 16:46:56.606,6,-8,1,0,1,1,-5,-14
2025-05-18 16:46:56.618,1,-22,-1,-4,-4,-5,-3,14
2025-05-18 16:46:56.628,1,-22,-1,-4,-4,-5,-3,14
2025-05-18 16:46:56.638,-1,-37,3,2,0,3,-1,-1
2025-05-18 16:46:56.650,-15,-25,-9,-4,-4,0,-1,-6
2025-05-18 16:46:56.660,3,-55,-16,-1,-2,-1,-3,-2
2025-05-18 16:46:56.672,4,-7,-5,-1,1,3,4,2
2025-05-18 16:46:56.684,17,53,15,-1,0,-1,-1,-2
2025-05-18 16:46:56.697,7,34,8,-1,0,0,-2,1
2025-05-18 16:46:56.708,23,-1,11,3,1,-4,4,0
2025-05-18 16:46:56.717,-11,-15,-2,1,3,4,-2,-3
2025-05-18 16:46:56.730,-11,-15,-2,1,3,4,-2,-3
2025-05-18 16:46:56.741,6,21,3,-1,1,-4,-5,-1
2025-05-18 16:46:56.752,6,21,3,-1,1,-4,-5,-1
2025-05-18 16:46:56.762,-25,5,-18,-5,3,0,-5,-6
2025-05-18 16:46:56.774,-17,-15,-1,-1,0,0,2,-5
2025-05-18 16:46:56.785,11,0,1,-1,-6,-1,0,1
2025-05-18 16:46:56.795,16,18,17,5,3,-1,2,7
2025-05-18 16:46:56.806,16,18,17,5,3,-1,2,7
2025-05-18 16:46:56.818,-11,2,6,4,1,0,-3,-3
2025-05-18 16:46:56.827,-31,-23,-15,-2,-3,1,0,-7
2025-05-18 16:46:56.840,10,-23,2,-1,2,-2,-1,-17
2025-05-18 16:46:56.852,-37,11,-1,-5,-2,-2,-2,-15
2025-05-18 16:46:56.863,-8,-21,-10,-5,-8,-4,-5,0
2025-05-18 16:46:56.875,29,49,9,1,0,0,0,12
2025-05-18 16:46:56.886,29,49,9,1,0,0,0,12
2025-05-18 16:46:56.898,1,-4,-9,0,-1,-2,-3,-3
2025-05-18 16:46:56.910,1,-4,-9,0,-1,-2,-3,-3
2025-05-18 16:46:56.922,-20,-33,3,-2,2,1,-3,-5
2025-05-18 16:46:56.932,-20,-33,3,-2,2,1,-3,-5
2025-05-18 16:46:56.943,-7,9,4,3,-1,0,-3,1
2025-05-18 16:46:56.952,-23,-45,-11,-4,-1,-1,-1,3
2025-05-18 16:46:56.964,-10,-36,-11,0,-1,-1,-3,-1
2025-05-18 16:46:56.975,3,-8,4,-6,-3,0,-1,14
2025-05-18 16:46:56.985,3,-8,4,-6,-3,0,-1,14
2025-05-18 16:46:56.998,8,19,1,1,0,0,-4,-6
2025-05-18 16:46:57.008,24,19,3,-3,0,0,2,0
2025-05-18 16:46:57.021,5,-1,2,0,2,3,-1,6
2025-05-18 16:46:57.033,9,-13,-11,-3,-2,2,-3,-5
2025-05-18 16:46:57.044,9,-13,-11,-3,-2,2,-3,-5
2025-05-18 16:46:57.055,9,8,2,-2,-1,-2,2,3
2025-05-18 16:46:57.065,-38,4,6,-2,0,0,-5,-1
2025-05-18 16:46:57.076,8,-12,-5,3,-1,0,-2,1
2025-05-18 16:46:57.088,8,-12,-5,3,-1,0,-2,1
2025-05-18 16:46:57.098,31,43,11,0,1,0,-1,7
2025-05-18 16:46:57.110,31,43,11,0,1,0,-1,7
2025-05-18 16:46:57.121,25,-3,-9,0,-3,1,-2,5
2025-05-18 16:46:57.133,25,-3,-9,0,-3,1,-2,5
2025-05-18 16:46:57.144,1,-6,16,-2,-2,-2,-1,-3
2025-05-18 16:46:57.155,-2,-19,-4,4,-2,-1,0,8
2025-05-18 16:46:57.165,-2,-19,-4,4,-2,-1,0,8
2025-05-18 16:46:57.177,-4,-21,1,7,3,-2,-3,0
2025-05-18 16:46:57.188,-4,-21,1,7,3,-2,-3,0
2025-05-18 16:46:57.199,6,5,-2,1,-2,0,-3,-28
2025-05-18 16:46:57.211,5,25,2,-3,-9,0,2,-2
2025-05-18 16:46:57.222,-2,2,-1,-1,3,-2,-5,13
2025-05-18 16:46:57.234,2,0,-1,-6,-6,-2,2,-13
2025-05-18 16:46:57.244,-1,5,0,-4,-3,0,-4,6
2025-05-18 16:46:57.255,-1,5,0,-4,-3,0,-4,6
2025-05-18 16:46:57.266,4,-6,2,-3,-2,0,-3,1
2025-05-18 16:46:57.276,0,38,7,5,6,3,5,7
2025-05-18 16:46:57.287,-4,-26,6,-4,-4,-5,-7,3
2025-05-18 16:46:57.301,-14,22,4,2,-7,-2,-4,8
2025-05-18 16:46:57.312,-14,22,4,2,-7,-2,-4,8
2025-05-18 16:46:57.324,21,14,-2,-1,0,-3,-5,8
2025-05-18 16:46:57.334,5,12,5,-2,2,-2,2,5
2025-05-18 16:46:57.346,-19,-35,-8,-7,3,-2,-4,-7
2025-05-18 16:46:57.358,15,-4,-5,0,0,-1,0,6
2025-05-18 16:46:57.368,15,-4,-5,0,0,-1,0,6
2025-05-18 16:46:57.380,28,12,2,2,2,2,-5,-21
2025-05-18 16:46:57.392,-3,24,8,5,1,-3,4,0
2025-05-18 16:46:57.402,-10,-4,-1,2,2,-1,-2,13
2025-05-18 16:46:57.412,-10,-4,-1,2,2,-1,-2,13
2025-05-18 16:46:57.423,0,-8,-4,0,-6,-4,-5,0
2025-05-18 16:46:57.435,0,-8,-4,0,-6,-4,-5,0
2025-05-18 16:46:57.446,1,0,-10,-6,-4,2,-4,1
2025-05-18 16:46:57.457,6,17,-2,-3,-2,1,0,-2
2025-05-18 16:46:57.468,-19,-25,-5,-1,1,-3,-4,-5
2025-05-18 16:46:57.480,28,36,6,1,-3,-3,-1,-16
2025-05-18 16:46:57.491,28,36,6,1,-3,-3,-1,-16
2025-05-18 16:46:57.501,-13,-3,-11,-4,-3,1,2,-2
2025-05-18 16:46:57.514,0,3,0,-5,1,1,0,-11
2025-05-18 16:46:57.525,1,-42,-8,-6,-9,-4,-6,7
2025-05-18 16:46:57.537,13,-23,4,-2,5,1,-5,2
2025-05-18 16:46:57.548,13,-23,4,-2,5,1,-5,2
2025-05-18 16:46:57.559,-5,6,-4,9,5,-2,-1,8
2025-05-18 16:46:57.570,-5,6,-4,9,5,-2,-1,8
2025-05-18 16:46:57.581,-2,8,5,-3,1,2,-6,3
2025-05-18 16:46:57.592,-2,8,5,-3,1,2,-6,3
2025-05-18 16:46:57.604,3,-8,0,1,-1,-3,-8,1
2025-05-18 16:46:57.615,3,-8,0,1,-1,-3,-8,1
2025-05-18 16:46:57.628,14,16,-10,-1,-1,-5,-4,4
2025-05-18 16:46:57.638,-20,12,-10,1,0,-2,-2,24
2025-05-18 16:46:57.648,-20,12,-10,1,0,-2,-2,24
2025-05-18 16:46:57.660,11,21,5,0,-3,-4,-5,-1
2025-05-18 16:46:57.670,11,21,5,0,-3,-4,-5,-1
2025-05-18 16:46:57.681,7,11,7,2,1,1,-4,-1
2025-05-18 16:46:57.692,18,11,23,3,0,2,5,-4
2025-05-18 16:46:57.704,-8,-25,-2,-2,-1,-2,-3,0
2025-05-18 16:46:57.715,5,-2,2,2,0,-5,-9,-8
2025-05-18 16:46:57.726,5,-2,2,2,0,-5,-9,-8
2025-05-18 16:46:57.737,-11,15,-10,-7,-3,3,1,-7
2025-05-18 16:46:57.747,2,11,0,1,0,0,-1,21
2025-05-18 16:46:57.760,6,-17,1,0,4,2,-3,0
2025-05-18 16:46:57.771,6,-17,1,0,4,2,-3,0
2025-05-18 16:46:57.783,-1,8,4,-2,-3,-2,-4,-9
2025-05-18 16:46:57.795,-1,8,4,-2,-3,-2,-4,-9
2025-05-18 16:46:57.805,-6,-24,9,3,-4,-1,-1,-4
2025-05-18 16:46:57.818,-1,11,-3,-1,1,-1,3,-2
2025-05-18 16:46:57.829,-16,-32,-9,-2,-9,-3,-4,-6
2025-05-18 16:46:57.841,4,24,3,2,4,-2,-3,-1
2025-05-18 16:46:57.851,4,24,3,2,4,-2,-3,-1
2025-05-18 16:46:57.863,2,-6,0,3,2,-3,-1,1
2025-05-18 16:46:57.875,-12,8,-9,-3,-1,1,0,-3
2025-05-18 16:46:57.885,13,7,-1,-1,-1,-1,-2,5
2025-05-18 16:46:57.897,5,-9,0,-1,-4,-4,-4,2
2025-05-18 16:46:57.906,5,-9,0,-1,-4,-4,-4,2
2025-05-18 16:46:57.918,13,12,5,8,5,4,-4,-8
2025-05-18 16:46:57.929,8,21,1,-4,0,5,3,3
2025-05-18 16:46:57.940,-6,-15,-9,-2,1,2,-3,-2
2025-05-18 16:46:57.952,-6,-15,-9,-2,1,2,-3,-2
2025-05-18 16:46:57.963,5,-2,7,-2,-4,-2,-4,1
2025-05-18 16:46:57.974,5,-2,7,-2,-4,-2,-4,1
2025-05-18 16:46:57.986,0,-10,-6,-3,-4,0,-5,4
2025-05-18 16:46:57.995,12,19,-1,-3,-2,-2,2,0
2025-05-18 16:46:58.007,-21,-2,2,1,-1,-2,-6,-2
2025-05-18 16:46:58.019,-41,-92,-26,-4,-2,-5,-7,-4
2025-05-18 16:46:58.030,-41,-92,-26,-4,-2,-5,-7,-4
2025-05-18 16:46:58.040,16,35,5,-2,-4,-1,-6,-4
2025-05-18 16:46:58.053,16,35,5,-2,-4,-1,-6,-4
2025-05-18 16:46:58.065,-1,-4,-1,2,4,1,1,6
2025-05-18 16:46:58.075,14,-1,0,4,3,0,-5,0
2025-05-18 16:46:58.087,14,-1,0,4,3,0,-5,0
2025-05-18 16:46:58.098,8,-13,-5,0,-4,1,0,4
2025-05-18 16:46:58.109,8,-13,-5,0,-4,1,0,4
2025-05-18 16:46:58.120,7,-2,10,1,-1,-7,-3,5
2025-05-18 16:46:58.132,7,-2,10,1,-1,-7,-3,5
2025-05-18 16:46:58.143,-2,3,-4,-4,0,-1,-2,0
2025-05-18 16:46:58.154,-2,3,-4,-4,0,-1,-2,0
2025-05-18 16:46:58.164,-1,-21,-10,0,6,1,-7,1
2025-05-18 16:46:58.176,-1,-21,-10,0,6,1,-7,1
2025-05-18 16:46:58.188,11,0,-9,-3,3,2,-4,6
2025-05-18 16:46:58.198,17,1,6,1,-1,5,-1,-1
2025-05-18 16:46:58.208,17,1,6,1,-1,5,-1,-1
2025-05-18 16:46:58.220,-10,14,-2,3,1,-1,-2,1
2025-05-18 16:46:58.230,-10,14,-2,3,1,-1,-2,1
2025-05-18 16:46:58.242,18,19,11,0,-2,-3,-3,6
2025-05-18 16:46:58.253,-29,-6,-2,-3,-1,-2,-1,-12
2025-05-18 16:46:58.265,1,-17,-12,3,-1,-3,-4,-5
2025-05-18 16:46:58.276,3,-5,-3,-3,2,3,3,0
2025-05-18 16:46:58.288,-17,-49,-6,-4,-1,-4,-4,-1
2025-05-18 16:46:58.300,19,23,9,1,3,0,-4,7
2025-05-18 16:46:58.310,19,23,9,1,3,0,-4,7
2025-05-18 16:46:58.322,9,-3,6,0,0,-7,-4,6
2025-05-18 16:46:58.334,9,-3,6,0,0,-7,-4,6
2025-05-18 16:46:58.344,5,4,4,2,-1,-3,-5,-1
2025-05-18 16:46:58.356,5,4,4,2,-1,-3,-5,-1
2025-05-18 16:46:58.367,3,-3,1,-6,-6,-2,-6,-6
2025-05-18 16:46:58.377,-3,-1,-15,-3,-4,-7,1,-7
2025-05-18 16:46:58.390,-2,13,0,-2,-1,-1,-6,2
2025-05-18 16:46:58.400,9,10,11,6,1,-3,-3,0
2025-05-18 16:46:58.412,9,10,11,6,1,-3,-3,0
2025-05-18 16:46:58.422,15,8,0,5,-1,0,-3,4
2025-05-18 16:46:58.433,-8,3,3,-4,-1,-1,-2,2
2025-05-18 16:46:58.444,6,3,-3,-3,-4,-1,-4,-7
2025-05-18 16:46:58.456,-23,-4,5,-3,-4,-6,-1,1
2025-05-18 16:46:58.467,-4,6,4,-3,-6,-6,-2,7
2025-05-18 16:46:58.478,-4,6,4,-3,-6,-6,-2,7
2025-05-18 16:46:58.489,-10,-13,4,-2,-5,-7,-6,-3
2025-05-18 16:46:58.501,-20,-26,-8,-1,-1,2,-1,2
2025-05-18 16:46:58.511,-20,-26,-8,-1,-1,2,-1,2
2025-05-18 16:46:58.522,31,9,2,2,5,3,-3,-18
2025-05-18 16:46:58.533,31,9,2,2,5,3,-3,-18
2025-05-18 16:46:58.545,25,7,1,1,3,3,-4,-4
2025-05-18 16:46:58.555,-21,-40,-5,1,2,-6,-5,-15
2025-05-18 16:46:58.567,-7,2,-1,2,3,-3,-3,4
2025-05-18 16:46:58.578,-48,-52,-11,-2,-3,-4,-6,1
2025-05-18 16:46:58.590,-48,-52,-11,-2,-3,-4,-6,1
2025-05-18 16:46:58.601,-13,-5,4,0,-3,-1,-2,7
2025-05-18 16:46:58.613,-34,-13,-3,-4,-5,2,-2,14
2025-05-18 16:46:58.625,-3,-12,-5,-3,0,-5,-3,0
2025-05-18 16:46:58.636,0,21,0,0,-2,-3,0,1
2025-05-18 16:46:58.645,10,-8,-7,8,2,2,3,37
2025-05-18 16:46:58.659,9,14,1,1,1,-2,2,-5
2025-05-18 16:46:58.671,3,-20,-1,-1,0,-5,-5,-6
2025-05-18 16:46:58.681,-19,-8,-5,-2,-3,0,-7,-1
2025-05-18 16:46:58.692,-19,-8,-5,-2,-3,0,-7,-1
2025-05-18 16:46:58.703,-9,-32,-20,-9,-5,1,-2,-7
2025-05-18 16:46:58.713,-9,-32,-20,-9,-5,1,-2,-7
2025-05-18 16:46:58.725,39,36,6,-2,0,-2,0,-25
2025-05-18 16:46:58.736,5,21,-7,3,-3,0,2,0
2025-05-18 16:46:58.750,2,16,2,-2,-2,5,2,7
2025-05-18 16:46:58.760,-9,-13,-1,3,5,-3,-5,-4
2025-05-18 16:46:58.771,-9,-13,-1,3,5,-3,-5,-4
2025-05-18 16:46:58.782,6,23,10,-3,-5,-2,-6,3
2025-05-18 16:46:58.793,8,5,4,0,1,2,4,3
2025-05-18 16:46:58.803,-12,-24,-5,1,-2,-2,-2,1
2025-05-18 16:46:58.814,-12,-24,-5,1,-2,-2,-2,1
2025-05-18 16:46:58.826,5,-17,-3,-3,-4,-5,-3,3
2025-05-18 16:46:58.837,5,-17,-3,-3,-4,-5,-3,3
2025-05-18 16:46:58.847,16,36,0,4,3,-1,-5,3
2025-05-18 16:46:58.858,-9,-30,-12,-7,-2,0,0,-4
2025-05-18 16:46:58.870,0,16,6,2,2,0,-3,2
2025-05-18 16:46:58.880,11,13,7,8,1,0,-2,-31
2025-05-18 16:46:58.892,11,13,7,8,1,0,-2,-31
2025-05-18 16:46:58.904,-5,-40,-13,-3,1,4,-1,12
2025-05-18 16:46:58.916,-7,-26,-13,-6,-8,-2,4,-15
2025-05-18 16:46:58.926,20,10,9,0,2,-3,-3,1
2025-05-18 16:46:58.936,-23,-31,-5,-2,1,0,-1,0
2025-05-18 16:46:58.947,1,-2,-3,-3,-5,-2,-3,4
2025-05-18 16:46:58.958,-3,15,0,1,-3,-3,-1,-2
2025-05-18 16:46:58.970,9,21,4,3,-5,-6,-5,8
2025-05-18 16:46:58.981,5,23,13,1,-2,-4,-2,8
2025-05-18 16:46:58.992,5,23,13,1,-2,-4,-2,8
2025-05-18 16:46:59.002,-18,-9,-15,-1,-5,-2,-4,-3
2025-05-18 16:46:59.011,-18,-9,-15,-1,-5,-2,-4,-3
2025-05-18 16:46:59.023,-10,-5,-3,-2,0,-1,0,6
2025-05-18 16:46:59.034,-10,-5,-3,-2,0,-1,0,6
2025-05-18 16:46:59.045,-10,-43,-6,-1,3,-2,1,4
2025-05-18 16:46:59.057,25,33,5,3,1,0,-3,6
2025-05-18 16:46:59.069,25,33,5,3,1,0,-3,6
2025-05-18 16:46:59.078,12,25,0,-4,-4,-3,-5,-11
2025-05-18 16:46:59.089,-3,21,8,-3,1,1,-4,-9
2025-05-18 16:46:59.100,-3,21,8,-3,1,1,-4,-9
2025-05-18 16:46:59.111,-25,-26,-11,-3,-2,0,-1,2
2025-05-18 16:46:59.122,12,8,-3,-1,-2,-3,-3,0
2025-05-18 16:46:59.134,12,8,-3,-1,-2,-3,-3,0
2025-05-18 16:46:59.145,19,37,0,1,-1,1,-1,2
2025-05-18 16:46:59.156,19,37,0,1,-1,1,-1,2
2025-05-18 16:46:59.166,-2,-16,-7,-3,-3,-3,-3,3
2025-05-18 16:46:59.177,6,-25,0,-2,3,2,6,-16
2025-05-18 16:46:59.188,-14,-6,-5,1,4,-1,-2,-5
2025-05-18 16:46:59.200,2,-2,5,1,-3,-2,-2,8
2025-05-18 16:46:59.211,2,-2,5,1,-3,-2,-2,8
2025-05-18 16:46:59.222,16,7,1,3,0,-3,-3,-26
2025-05-18 16:46:59.232,16,7,1,3,0,-3,-3,-26
2025-05-18 16:46:59.244,-6,-28,-6,4,0,-3,-3,0
2025-05-18 16:46:59.255,-6,-28,-6,4,0,-3,-3,0
2025-05-18 16:46:59.266,-7,-7,-4,-6,-5,0,-2,2
2025-05-18 16:46:59.278,-7,-7,-4,-6,-5,0,-2,2
2025-05-18 16:46:59.287,-17,-28,5,0,-1,3,1,6
2025-05-18 16:46:59.298,7,10,3,1,-2,1,3,-3
2025-05-18 16:46:59.308,12,19,-2,-3,-4,-2,-3,-21
2025-05-18 16:46:59.319,1,7,3,0,-4,-2,-3,0
2025-05-18 16:46:59.329,3,41,8,0,-2,-5,-2,15
2025-05-18 16:46:59.338,3,41,8,0,-2,-5,-2,15
2025-05-18 16:46:59.350,-17,-23,-9,-4,-6,-2,-3,-3
2025-05-18 16:46:59.361,-5,-25,-2,-2,-3,3,2,1
2025-05-18 16:46:59.372,9,21,8,2,1,0,-2,8
2025-05-18 16:46:59.382,-5,-18,-2,0,0,0,-2,-1
2025-05-18 16:46:59.394,-5,-18,-2,0,0,0,-2,-1
2025-05-18 16:46:59.404,-15,-25,-5,-2,-3,-6,-1,-1
2025-05-18 16:46:59.416,13,29,7,-3,-1,-3,-2,1
2025-05-18 16:46:59.428,9,13,-4,-1,-1,-2,-1,3
2025-05-18 16:46:59.439,-3,34,4,1,7,5,-2,-9
2025-05-18 16:46:59.450,0,-19,-16,-3,-5,-2,0,-1
2025-05-18 16:46:59.460,0,-19,-16,-3,-5,-2,0,-1
2025-05-18 16:46:59.470,8,28,-2,-7,-3,-2,-1,0
2025-05-18 16:46:59.480,16,20,-6,-1,-2,-3,-3,-2
2025-05-18 16:46:59.492,-22,-36,2,3,2,-3,-1,-4
2025-05-18 16:46:59.503,-3,0,-5,-5,-1,0,2,5
2025-05-18 16:46:59.513,-3,0,-5,-5,-1,0,2,5
2025-05-18 16:46:59.524,-7,-30,-6,-6,0,1,-2,-9
2025-05-18 16:46:59.535,7,0,-3,-3,-4,0,-1,5
2025-05-18 16:46:59.545,9,21,-1,0,2,3,-1,-5
2025-05-18 16:46:59.556,9,21,-1,0,2,3,-1,-5
2025-05-18 16:46:59.567,-36,-41,-7,0,-5,-5,-6,-6
2025-05-18 16:46:59.578,-36,-41,-7,0,-5,-5,-6,-6
2025-05-18 16:46:59.588,-18,23,3,-1,-8,-6,-2,-11
2025-05-18 16:46:59.600,8,0,-1,0,-1,-3,-3,-1
2025-05-18 16:46:59.610,6,10,1,1,-2,0,0,-2
2025-05-18 16:46:59.622,1,-23,-12,-6,-2,-1,-4,-17
2025-05-18 16:46:59.632,1,-23,-12,-6,-2,-1,-4,-17
2025-05-18 16:46:59.643,-7,-3,5,4,4,1,2,6
2025-05-18 16:46:59.655,-9,-25,2,-2,-4,1,-2,-6
2025-05-18 16:46:59.664,14,15,-7,-3,-1,5,2,17
2025-05-18 16:46:59.674,14,15,-7,-3,-1,5,2,17
2025-05-18 16:46:59.685,-3,-23,-20,-7,-4,-1,-2,-12
2025-05-18 16:46:59.695,-3,-23,-20,-7,-4,-1,-2,-12
2025-05-18 16:46:59.706,-4,-7,3,1,3,-2,1,-6
2025-05-18 16:46:59.716,4,-6,-2,0,-1,-6,-6,-1
2025-05-18 16:46:59.726,-1,34,13,3,1,-3,0,-11
2025-05-18 16:46:59.738,3,18,9,0,0,1,0,4
2025-05-18 16:46:59.750,19,12,0,-1,0,1,-1,6
2025-05-18 16:46:59.762,0,16,4,5,6,1,5,28
2025-05-18 16:46:59.772,12,6,2,2,2,-3,3,0
2025-05-18 16:46:59.783,-8,-10,-6,-3,2,2,0,9
2025-05-18 16:46:59.794,-8,-10,-6,-3,2,2,0,9
2025-05-18 16:46:59.803,2,7,-9,-4,-3,-3,-3,-11
2025-05-18 16:46:59.814,2,7,-9,-4,-3,-3,-3,-11
2025-05-18 16:46:59.824,-3,7,-15,-2,-4,-2,2,2
2025-05-18 16:46:59.834,-22,-2,-16,-2,-2,-2,-6,-5
2025-05-18 16:46:59.847,-33,3,7,3,-3,-2,2,-3
2025-05-18 16:46:59.859,13,20,9,-1,-3,-4,0,0
2025-05-18 16:46:59.870,-27,-16,1,-1,1,5,0,0
2025-05-18 16:46:59.881,21,4,12,4,4,0,6,2
2025-05-18 16:46:59.891,-1,-48,-4,1,-4,-4,2,4
2025-05-18 16:46:59.901,-3,19,2,4,3,-2,-8,-4
2025-05-18 16:46:59.913,0,15,6,-7,-4,-2,1,-6
2025-05-18 16:46:59.923,35,-8,-10,3,2,-2,-4,-21
2025-05-18 16:46:59.934,-13,4,-4,-3,-4,-2,-2,-6
2025-05-18 16:46:59.945,-9,-14,-7,-2,-1,-1,2,-7
2025-05-18 16:46:59.956,-9,-14,-7,-2,-1,-1,2,-7
2025-05-18 16:46:59.966,3,-7,-11,-1,0,-2,-2,-5
2025-05-18 16:46:59.978,30,-5,-1,-4,-1,-1,-3,4
2025-05-18 16:46:59.989,-4,21,6,0,-3,-1,0,-3
2025-05-18 16:47:00.000,-4,21,6,0,-3,-1,0,-3
2025-05-18 16:47:00.010,-5,26,2,2,0,-3,1,1
2025-05-18 16:47:00.021,-5,26,2,2,0,-3,1,1
2025-05-18 16:47:00.033,-6,17,5,-3,-4,-5,2,-7
2025-05-18 16:47:00.044,-21,-20,1,0,-3,-3,3,7
2025-05-18 16:47:00.055,-21,-20,1,0,-3,-3,3,7
2025-05-18 16:47:00.066,1,-4,-12,-3,3,3,1,-6
2025-05-18 16:47:00.076,1,-4,-12,-3,3,3,1,-6
2025-05-18 16:47:00.088,15,-4,3,0,-4,-5,0,-7
2025-05-18 16:47:00.100,-1,4,-2,-2,-2,2,-4,-5
2025-05-18 16:47:00.109,-4,46,4,6,0,-1,0,-2
2025-05-18 16:47:00.121,-11,-5,-4,1,0,-2,-2,3
2025-05-18 16:47:00.131,3,4,2,7,3,0,1,-10
2025-05-18 16:47:00.142,3,4,2,7,3,0,1,-10
2025-05-18 16:47:00.153,-1,-11,-13,-7,-5,-2,0,-15
2025-05-18 16:47:00.165,-33,-64,-11,-7,-3,-5,-1,-7
2025-05-18 16:47:00.175,-33,-64,-11,-7,-3,-5,-1,-7
2025-05-18 16:47:00.187,9,21,1,-2,-4,0,5,5
2025-05-18 16:47:00.198,9,21,1,-2,-4,0,5,5
2025-05-18 16:47:00.209,-9,-4,-16,10,4,6,3,-6
2025-05-18 16:47:00.220,7,23,2,2,4,-1,-2,-1
2025-05-18 16:47:00.230,-3,24,-4,-4,-3,2,5,2
2025-05-18 16:47:00.241,8,30,5,3,0,-1,1,3
2025-05-18 16:47:00.251,-12,-41,-1,-4,-1,-1,-4,-3
2025-05-18 16:47:00.263,-14,-7,1,-4,-5,-5,-7,-8
2025-05-18 16:47:00.273,0,11,4,-4,-3,-4,2,-5
2025-05-18 16:47:00.283,10,-6,2,3,3,1,-2,1
2025-05-18 16:47:00.295,10,58,10,0,2,0,4,0
2025-05-18 16:47:00.305,10,32,5,1,1,-2,2,-1
2025-05-18 16:47:00.315,10,32,5,1,1,-2,2,-1
2025-05-18 16:47:00.326,2,4,1,1,2,1,6,2
2025-05-18 16:47:00.336,2,4,1,1,2,1,6,2
2025-05-18 16:47:00.348,-4,12,2,-3,-3,0,2,8
2025-05-18 16:47:00.357,-4,12,2,-3,-3,0,2,8
2025-05-18 16:47:00.368,-4,-9,-4,-3,4,-1,1,-2
2025-05-18 16:47:00.378,-4,-9,-4,-3,4,-1,1,-2
2025-05-18 16:47:00.390,-14,-20,-8,-8,-8,-1,1,-10
2025-05-18 16:47:00.400,-45,-84,-10,-4,2,-4,-4,-13
2025-05-18 16:47:00.410,4,11,8,-4,-3,0,2,-6
2025-05-18 16:47:00.421,-44,-30,-6,-3,-1,-2,-2,-10
2025-05-18 16:47:00.431,-44,-30,-6,-3,-1,-2,-2,-10
2025-05-18 16:47:00.443,12,5,5,7,2,0,0,5
2025-05-18 16:47:00.454,6,24,1,1,2,-4,4,6
2025-05-18 16:47:00.464,6,-16,-5,-1,-3,-2,-2,3
2025-05-18 16:47:00.474,-4,21,-9,-2,-4,-4,3,-3
2025-05-18 16:47:00.486,7,23,1,1,0,2,4,0
2025-05-18 16:47:00.497,7,23,1,1,0,2,4,0
2025-05-18 16:47:00.508,-2,17,11,-3,-3,-1,2,-5
2025-05-18 16:47:00.518,24,17,3,5,0,-2,-2,1
2025-05-18 16:47:00.530,-5,-61,-8,-4,-5,5,2,-5
2025-05-18 16:47:00.541,-3,10,-1,-1,0,1,6,23
2025-05-18 16:47:00.552,-3,10,-1,-1,0,1,6,23
2025-05-18 16:47:00.562,-3,10,-1,-1,0,1,6,23
2025-05-18 16:47:00.572,8,16,3,4,1,1,2,-6
2025-05-18 16:47:00.583,-17,-87,-15,-6,-1,-4,-6,0
2025-05-18 16:47:00.595,6,-10,-3,-2,-2,1,4,-10
2025-05-18 16:47:00.606,-16,-4,-15,-3,-2,1,3,-5
2025-05-18 16:47:00.617,-16,-4,-15,-3,-2,1,3,-5
2025-05-18 16:47:00.627,-24,6,-1,-4,-3,-1,6,21
2025-05-18 16:47:00.639,20,20,11,2,-2,1,-2,5
2025-05-18 16:47:00.650,17,37,2,-2,0,1,2,-9
2025-05-18 16:47:00.661,-14,-25,-15,-4,-3,-3,0,-14
2025-05-18 16:47:00.671,-14,-25,-15,-4,-3,-3,0,-14
2025-05-18 16:47:00.683,8,-27,-11,3,3,-1,-4,2
2025-05-18 16:47:00.693,17,1,1,0,-1,-3,1,-6
2025-05-18 16:47:00.703,17,1,1,0,-1,-3,1,-6
2025-05-18 16:47:00.715,7,25,11,-6,-5,3,3,-3
2025-05-18 16:47:00.726,-9,-23,-6,-2,-2,-4,1,-10
2025-05-18 16:47:00.736,-9,-23,-6,-2,-2,-4,1,-10
2025-05-18 16:47:00.747,-15,13,-1,-4,-1,2,0,-11
2025-05-18 16:47:00.758,11,2,2,1,-1,3,-3,-1
2025-05-18 16:47:00.769,28,18,5,-7,0,-1,2,-3
2025-05-18 16:47:00.780,-3,-7,1,-1,-3,-2,-3,-8
2025-05-18 16:47:00.791,-14,8,-4,0,3,0,3,-2
2025-05-18 16:47:00.802,-14,8,-4,0,3,0,3,-2
2025-05-18 16:47:00.813,0,-4,-4,3,0,1,3,-4
2025-05-18 16:47:00.824,14,-2,1,3,4,2,-1,-21
2025-05-18 16:47:00.835,-9,7,0,-6,-6,0,3,-7
2025-05-18 16:47:00.847,-3,-5,-2,-2,-3,-3,0,-7
2025-05-18 16:47:00.858,-3,-5,-2,-2,-3,-3,0,-7
2025-05-18 16:47:00.870,-12,-10,-2,2,-2,-2,0,-2
2025-05-18 16:47:00.880,-12,-10,-2,2,-2,-2,0,-2
2025-05-18 16:47:00.892,-8,-18,-7,0,1,-4,0,-5
2025-05-18 16:47:00.902,13,26,-3,-4,-5,0,1,-4
2025-05-18 16:47:00.913,13,26,-3,-4,-5,0,1,-4
2025-05-18 16:47:00.923,-12,3,-4,1,1,0,5,-4
2025-05-18 16:47:00.936,-12,3,-4,1,1,0,5,-4
2025-05-18 16:47:00.948,-13,-3,4,-4,3,2,4,2
2025-05-18 16:47:00.959,-13,-3,4,-4,3,2,4,2
2025-05-18 16:47:00.970,-44,-4,-4,0,0,-1,2,-13
2025-05-18 16:47:00.981,-44,-4,-4,0,0,-1,2,-13
2025-05-18 16:47:00.992,-1,-1,4,3,-1,2,4,-2
2025-05-18 16:47:01.003,-1,-1,4,3,-1,2,4,-2
2025-05-18 16:47:01.015,20,2,-10,0,-1,-1,5,0
2025-05-18 16:47:01.027,18,27,4,-4,2,1,1,5
2025-05-18 16:47:01.038,18,27,4,-4,2,1,1,5
2025-05-18 16:47:01.050,-13,-33,-8,-5,-6,-5,2,-12
2025-05-18 16:47:01.061,-13,-33,-8,-5,-6,-5,2,-12
2025-05-18 16:47:01.075,6,12,7,-3,5,5,1,2
2025-05-18 16:47:01.087,-20,-30,-12,-3,-5,0,3,2
2025-05-18 16:47:01.098,-20,-30,-12,-3,-5,0,3,2
2025-05-18 16:47:01.108,-14,11,6,2,0,-1,1,-11
2025-05-18 16:47:01.120,-14,11,6,2,0,-1,1,-11
2025-05-18 16:47:01.132,-13,-30,-4,-4,-3,-5,-3,-11
2025-05-18 16:47:01.144,14,17,4,-1,1,0,2,-6
2025-05-18 16:47:01.155,14,17,4,-1,1,0,2,-6
2025-05-18 16:47:01.168,-29,-38,-21,-7,-7,-5,3,-4
2025-05-18 16:47:01.179,-29,-38,-21,-7,-7,-5,3,-4
2025-05-18 16:47:01.189,-15,15,6,-2,1,2,3,26
2025-05-18 16:47:01.200,13,3,-2,-1,-4,-2,-3,-2
2025-05-18 16:47:01.211,20,29,10,2,4,-1,5,3
2025-05-18 16:47:01.221,20,29,10,2,4,-1,5,3
2025-05-18 16:47:01.234,8,-4,-5,-6,-2,-1,3,-8
2025-05-18 16:47:01.246,11,36,1,-1,1,-3,-2,0
2025-05-18 16:47:01.255,17,23,8,-2,-2,0,1,-3
2025-05-18 16:47:01.267,3,18,3,2,1,6,1,0
2025-05-18 16:47:01.278,3,18,3,2,1,6,1,0
2025-05-18 16:47:01.290,-2,11,-3,1,2,3,7,-4
2025-05-18 16:47:01.301,-2,11,-3,1,2,3,7,-4
2025-05-18 16:47:01.312,-10,8,4,3,1,-3,0,-13
2025-05-18 16:47:01.325,-3,-18,0,3,-3,-5,1,1
2025-05-18 16:47:01.335,-3,-18,0,3,-3,-5,1,1
2025-05-18 16:47:01.346,0,1,1,-3,2,5,4,-2
2025-05-18 16:47:01.356,0,1,1,-3,2,5,4,-2
2025-05-18 16:47:01.366,-10,-2,-3,-5,-7,-4,-4,-16
2025-05-18 16:47:01.377,-16,3,-5,-6,-6,0,2,-2
2025-05-18 16:47:01.388,-4,-5,-5,-6,-3,5,6,-4
2025-05-18 16:47:01.399,-4,-5,-5,-6,-3,5,6,-4
2025-05-18 16:47:01.408,-2,11,3,-7,-1,-7,0,-5
2025-05-18 16:47:01.420,-2,11,3,-7,-1,-7,0,-5
2025-05-18 16:47:01.430,-12,-10,-3,-6,-4,3,3,-4
2025-05-18 16:47:01.442,6,12,5,3,-1,-3,1,5
2025-05-18 16:47:01.452,6,12,5,3,-1,-3,1,5
2025-05-18 16:47:01.464,7,20,3,1,2,2,1,-4
2025-05-18 16:47:01.475,7,20,3,1,2,2,1,-4
2025-05-18 16:47:01.485,7,-11,2,-4,-5,-5,-2,3
2025-05-18 16:47:01.495,1,-20,-1,3,3,2,2,-4
2025-05-18 16:47:01.507,-36,-9,-5,-1,1,2,-6,-7
2025-05-18 16:47:01.518,-36,-9,-5,-1,1,2,-6,-7
2025-05-18 16:47:01.530,-5,-7,4,-4,-3,2,5,-1
2025-05-18 16:47:01.540,-5,-7,4,-4,-3,2,5,-1
2025-05-18 16:47:01.552,14,34,-2,0,-5,-4,1,-5
2025-05-18 16:47:01.562,5,25,0,-2,-5,-1,-2,6
2025-05-18 16:47:01.573,9,3,4,1,-7,-2,3,-2
2025-05-18 16:47:01.585,-13,-32,-4,-3,-2,-5,3,-4
2025-05-18 16:47:01.595,-13,-32,-4,-3,-2,-5,3,-4
2025-05-18 16:47:01.607,3,17,0,-4,-2,-1,0,-21
2025-05-18 16:47:01.618,3,17,0,-4,-2,-1,0,-21
2025-05-18 16:47:01.628,4,35,-7,-3,1,2,4,-5
2025-05-18 16:47:01.638,4,35,-7,-3,1,2,4,-5
2025-05-18 16:47:01.648,0,-9,-6,0,-1,-6,-1,3
2025-05-18 16:47:01.661,0,-9,-6,0,-1,-6,-1,3
2025-05-18 16:47:01.671,-2,-11,-6,-3,-1,5,1,3
2025-05-18 16:47:01.682,16,7,-5,6,4,-1,-5,5
2025-05-18 16:47:01.693,10,29,7,1,-4,0,3,3
2025-05-18 16:47:01.703,-15,-16,3,-4,-1,1,0,2
2025-05-18 16:47:01.716,-15,-16,3,-4,-1,1,0,2
2025-05-18 16:47:01.727,-7,-29,-3,1,1,0,3,3
2025-05-18 16:47:01.738,-7,-29,-3,1,1,0,3,3
2025-05-18 16:47:01.749,19,38,3,2,8,6,11,10
2025-05-18 16:47:01.760,19,38,3,2,8,6,11,10
2025-05-18 16:47:01.772,-8,-27,-6,-3,4,-2,0,-3
2025-05-18 16:47:01.783,-8,-27,-6,-3,4,-2,0,-3
2025-05-18 16:47:01.793,-22,16,-2,-4,-4,-2,-2,-10
2025-05-18 16:47:01.804,11,5,-3,6,1,2,0,10
2025-05-18 16:47:01.815,5,-23,-13,-2,0,2,0,0
2025-05-18 16:47:01.827,-5,-18,-1,3,1,1,3,-6
2025-05-18 16:47:01.838,-5,-18,-1,3,1,1,3,-6
2025-05-18 16:47:01.850,-6,20,7,-2,3,-6,-3,1
2025-05-18 16:47:01.860,-6,20,7,-2,3,-6,-3,1
2025-05-18 16:47:01.870,-13,0,2,0,-5,-4,-7,-6
2025-05-18 16:47:01.882,-13,0,2,0,-5,-4,-7,-6
2025-05-18 16:47:01.892,18,15,7,-3,-1,4,4,4
2025-05-18 16:47:01.904,18,15,7,-3,-1,4,4,4
2025-05-18 16:47:01.914,5,0,6,1,0,-1,2,1
2025-05-18 16:47:01.926,5,0,6,1,0,-1,2,1
2025-05-18 16:47:01.937,7,-10,-2,-1,-1,3,2,-3
2025-05-18 16:47:01.946,3,-10,6,-1,-5,-3,-3,-6
2025-05-18 16:47:01.956,3,-10,6,-1,-5,-3,-3,-6
2025-05-18 16:47:01.967,-6,2,3,-1,2,2,3,13
2025-05-18 16:47:01.979,-6,2,3,-1,2,2,3,13
2025-05-18 16:47:01.989,-37,-38,-10,0,-2,-1,-1,11
2025-05-18 16:47:02.000,-37,-38,-10,0,-2,-1,-1,11
2025-05-18 16:47:02.011,-17,-36,-20,-8,-5,-5,-3,-13
2025-05-18 16:47:02.022,-17,-36,-20,-8,-5,-5,-3,-13
2025-05-18 16:47:02.033,24,41,10,0,-1,-2,1,-3
2025-05-18 16:47:02.043,24,41,10,0,-1,-2,1,-3
2025-05-18 16:47:02.054,10,27,-4,3,1,4,3,-5
2025-05-18 16:47:02.064,5,-27,-2,-3,-2,-6,-5,-30
2025-05-18 16:47:02.075,5,-27,-2,-3,-2,-6,-5,-30
2025-05-18 16:47:02.086,-5,-1,5,-1,-2,0,1,3
2025-05-18 16:47:02.098,-5,-1,5,-1,-2,0,1,3
2025-05-18 16:47:02.109,-4,2,-2,0,-1,2,7,7
2025-05-18 16:47:02.120,-4,2,-2,0,-1,2,7,7
2025-05-18 16:47:02.132,-29,-24,-1,-4,-2,0,-4,-7
2025-05-18 16:47:02.143,-29,-24,-1,-4,-2,0,-4,-7
2025-05-18 16:47:02.154,18,5,2,2,1,0,-1,6
2025-05-18 16:47:02.164,18,5,2,2,1,0,-1,6
2025-05-18 16:47:24.636,-7,-6,-6,-3,-4,-3,-4,-6
2025-05-18 16:47:24.646,-10,-7,-1,2,-1,-1,-4,1
2025-05-18 16:47:24.657,-10,-7,-1,2,-1,-1,-4,1
2025-05-18 16:47:24.668,0,18,4,-2,-2,-4,0,-1
2025-05-18 16:47:24.679,10,-2,1,3,-2,-3,0,3
2025-05-18 16:47:24.690,7,7,1,0,0,-2,-4,3
2025-05-18 16:47:24.701,7,7,1,0,0,-2,-4,3
2025-05-18 16:47:24.712,5,-2,0,-1,1,0,-3,2
2025-05-18 16:47:24.722,5,-2,0,-1,1,0,-3,2
2025-05-18 16:47:24.733,-1,0,-2,-1,5,-2,-2,-1
2025-05-18 16:47:24.744,-4,-7,-4,-2,-1,1,3,-2
2025-05-18 16:47:24.755,1,0,-1,-2,-2,-2,-4,0
2025-05-18 16:47:24.765,10,-4,-3,-1,-1,-3,-5,0
2025-05-18 16:47:24.777,10,-4,-3,-1,-1,-3,-5,0
2025-05-18 16:47:24.787,0,13,-1,-5,-3,-4,1,-3
2025-05-18 16:47:24.798,-2,-6,-1,0,-1,-2,-2,-1
2025-05-18 16:47:24.808,10,-6,3,1,-1,-1,4,7
2025-05-18 16:47:24.820,-5,-1,0,-1,-3,-4,-4,-5
2025-05-18 16:47:24.830,0,5,0,3,3,-2,-2,4
2025-05-18 16:47:24.840,0,5,0,3,3,-2,-2,4
2025-05-18 16:47:24.850,6,-3,1,0,1,1,-2,6
2025-05-18 16:47:24.861,6,-3,1,0,1,1,-2,6
2025-05-18 16:47:24.872,1,-3,-6,-2,1,0,-2,-1
2025-05-18 16:47:24.882,1,-3,-6,-2,1,0,-2,-1
2025-05-18 16:47:24.893,-25,-8,-27,4,-2,-3,-6,-10
2025-05-18 16:47:24.903,-25,-8,-27,4,-2,-3,-6,-10
2025-05-18 16:47:24.914,5,12,7,2,0,-3,-3,4
2025-05-18 16:47:24.925,-2,15,2,2,1,2,1,-3
2025-05-18 16:47:24.936,3,-14,-18,-1,-2,-1,-2,1
2025-05-18 16:47:24.946,5,3,14,-2,-1,-3,-3,5
2025-05-18 16:47:24.957,5,3,14,-2,-1,-3,-3,5
2025-05-18 16:47:24.968,2,-3,-2,-2,-1,-1,1,-1
2025-05-18 16:47:24.978,8,0,7,-1,-3,-1,-1,-1
2025-05-18 16:47:24.990,-7,-30,-5,1,-2,-2,-5,2
2025-05-18 16:47:25.000,-7,-30,-5,1,-2,-2,-5,2
2025-05-18 16:47:25.011,-6,-8,9,-3,-5,-3,-4,-2
2025-05-18 16:47:25.022,-6,-8,9,-3,-5,-3,-4,-2
2025-05-18 16:47:25.032,-2,13,9,2,-3,-1,-2,-3
2025-05-18 16:47:25.045,-11,-24,-9,-2,0,-3,2,-6
2025-05-18 16:47:25.056,5,-7,-12,-5,-4,-2,-5,-4
2025-05-18 16:47:25.066,-4,0,-1,-4,-3,-4,-5,-1
2025-05-18 16:47:25.077,-4,0,-1,-4,-3,-4,-5,-1
2025-05-18 16:47:25.089,11,-2,2,2,2,-1,-1,3
2025-05-18 16:47:25.101,7,6,0,0,-1,0,0,0
2025-05-18 16:47:25.113,-8,-6,-3,0,0,-3,-2,0
2025-05-18 16:47:25.126,-7,-9,-7,5,2,0,2,-1
2025-05-18 16:47:25.138,-22,-10,6,-1,-2,0,-6,-8
2025-05-18 16:47:25.148,1,-8,0,-3,0,0,0,-4
2025-05-18 16:47:25.158,5,9,-5,-2,-1,-4,-7,-1
2025-05-18 16:47:25.169,-2,-6,-1,-4,-2,-1,-1,-1
2025-05-18 16:47:25.180,-1,2,-4,-4,-3,-2,-2,0
2025-05-18 16:47:25.190,11,-52,-7,-1,0,-1,-3,3
2025-05-18 16:47:25.202,11,-52,-7,-1,0,-1,-3,3
2025-05-18 16:47:25.214,-23,10,-2,9,4,1,-3,-3
2025-05-18 16:47:25.225,20,21,7,0,0,-1,1,0
2025-05-18 16:47:25.237,34,14,4,0,0,0,0,5
2025-05-18 16:47:25.248,16,6,0,-1,-1,1,1,15
2025-05-18 16:47:25.259,16,6,0,-1,-1,1,1,15
2025-05-18 16:47:25.269,8,15,3,2,0,-1,2,-3
2025-05-18 16:47:25.280,8,15,3,2,0,-1,2,-3
2025-05-18 16:47:25.291,18,23,-1,-1,-2,0,-4,-1
2025-05-18 16:47:25.302,18,23,-1,-1,-2,0,-4,-1
2025-05-18 16:47:25.313,-20,-9,-8,0,1,-1,-3,15
2025-05-18 16:47:25.324,-20,-9,-8,0,1,-1,-3,15
2025-05-18 16:47:25.335,32,2,-11,0,0,-3,-15,11
2025-05-18 16:47:25.347,0,17,1,-4,-2,-3,-5,-4
2025-05-18 16:47:25.358,16,20,5,1,-1,-11,-5,2
2025-05-18 16:47:25.369,-4,3,-1,-2,-1,14,3,-4
2025-05-18 16:47:25.378,-4,3,-1,-2,-1,14,3,-4
2025-05-18 16:47:25.391,-3,-35,0,-3,-2,-7,0,-1
2025-05-18 16:47:25.401,-1,-12,0,5,3,-1,-8,0
2025-05-18 16:47:25.413,-27,14,-1,-3,-2,-2,0,-12
2025-05-18 16:47:25.423,-27,14,-1,-3,-2,-2,0,-12
2025-05-18 16:47:25.434,-12,16,2,-2,-2,9,11,-1
2025-05-18 16:47:25.445,-12,16,2,-2,-2,9,11,-1
2025-05-18 16:47:25.456,-8,-14,-3,5,0,-1,-3,-4
2025-05-18 16:47:25.466,40,54,14,4,0,-6,8,10
2025-05-18 16:47:25.476,-14,-24,0,-7,-4,-4,-21,-13
2025-05-18 16:47:25.487,-11,-4,-3,-1,-2,-3,0,-10
2025-05-18 16:47:25.498,-11,-4,-3,-1,-2,-3,0,-10
2025-05-18 16:47:25.508,10,17,11,-1,3,4,-5,1
2025-05-18 16:47:25.519,10,17,11,-1,3,4,-5,1
2025-05-18 16:47:25.531,33,45,7,-1,0,4,-8,-1
2025-05-18 16:47:25.542,-32,-30,11,3,-5,-6,1,-2
2025-05-18 16:47:25.551,7,-6,8,-7,-3,-20,-7,-1
2025-05-18 16:47:25.562,7,-6,8,-7,-3,-20,-7,-1
2025-05-18 16:47:25.574,-10,-57,-21,-2,-2,-1,-2,-6
2025-05-18 16:47:25.584,-10,-57,-21,-2,-2,-1,-2,-6
2025-05-18 16:47:25.595,5,0,-2,6,1,-9,1,-2
2025-05-18 16:47:25.607,-3,12,4,-5,-2,8,1,-6
2025-05-18 16:47:25.617,-3,12,4,-5,-2,8,1,-6
2025-05-18 16:47:25.627,23,-8,-2,-7,-4,-8,3,11
2025-05-18 16:47:25.638,-9,-4,-13,1,0,0,3,5
2025-05-18 16:47:25.648,-9,-4,-13,1,0,0,3,5
2025-05-18 16:47:25.659,0,10,-6,-3,-3,-8,0,-5
2025-05-18 16:47:25.670,-18,14,1,0,4,18,-1,-2
2025-05-18 16:47:25.681,-18,14,1,0,4,18,-1,-2
2025-05-18 16:47:25.692,-4,-24,-3,-1,-2,2,5,-2
2025-05-18 16:47:25.703,-4,-24,-3,-1,-2,2,5,-2
2025-05-18 16:47:25.716,-11,19,-8,-3,1,-3,-2,25
2025-05-18 16:47:25.727,-19,21,-8,2,-2,-17,-4,-5
2025-05-18 16:47:25.737,-11,-8,4,1,0,6,3,-2
2025-05-18 16:47:25.748,-2,14,-4,0,-3,-5,-1,0
2025-05-18 16:47:25.758,-2,14,-4,0,-3,-5,-1,0
2025-05-18 16:47:25.769,-2,14,-4,0,-3,-5,-1,0
2025-05-18 16:47:25.780,-12,-11,0,2,-1,-5,-2,-8
2025-05-18 16:47:25.790,24,55,6,-3,-5,-3,0,3
2025-05-18 16:47:25.801,24,55,6,-3,-5,-3,0,3
2025-05-18 16:47:25.812,1,-41,-8,-6,-6,-7,-3,-7
2025-05-18 16:47:25.824,1,-41,-8,-6,-6,-7,-3,-7
2025-05-18 16:47:25.834,14,-7,-9,-3,-1,-3,-2,-27
2025-05-18 16:47:25.845,15,-10,-14,3,2,1,0,6
2025-05-18 16:47:25.856,10,17,12,-2,0,-4,1,-19
2025-05-18 16:47:25.867,10,17,12,-2,0,-4,1,-19
2025-05-18 16:47:25.877,13,19,0,0,0,27,-9,18
2025-05-18 16:47:25.888,0,-14,5,4,0,0,-5,1
2025-05-18 16:47:25.900,-21,-48,-2,0,0,-5,-2,-9
2025-05-18 16:47:25.910,4,4,-2,1,1,8,8,13
2025-05-18 16:47:25.920,4,17,-3,-3,-2,-6,1,40
2025-05-18 16:47:25.932,-18,-16,-13,-3,-2,-3,4,-5
2025-05-18 16:47:25.942,-18,-16,-13,-3,-2,-3,4,-5
2025-05-18 16:47:25.954,4,30,5,8,-1,-2,1,-9
2025-05-18 16:47:25.964,-24,-92,-10,-3,-3,13,2,-7
2025-05-18 16:47:25.976,1,-23,-10,-6,-4,-7,1,-9
2025-05-18 16:47:25.987,1,-23,-10,-6,-4,-7,1,-9
2025-05-18 16:47:25.997,0,37,12,-6,-5,-9,4,1
2025-05-18 16:47:26.009,0,37,12,-6,-5,-9,4,1
2025-05-18 16:47:26.020,5,-27,-6,-3,-5,-22,-6,-15
2025-05-18 16:47:26.033,-13,4,1,1,1,4,1,-7
2025-05-18 16:47:26.044,-13,4,1,1,1,4,1,-7
2025-05-18 16:47:26.055,2,8,1,3,0,-2,5,4
2025-05-18 16:47:26.066,2,8,1,3,0,-2,5,4
2025-05-18 16:47:26.077,-2,17,4,-3,0,5,6,11
2025-05-18 16:47:26.088,-2,17,4,-3,0,5,6,11
2025-05-18 16:47:26.101,-16,-41,-19,-4,-3,-3,-1,-4
2025-05-18 16:47:26.111,-3,21,-3,-2,-1,4,2,4
2025-05-18 16:47:26.121,-3,21,-3,-2,-1,4,2,4
2025-05-18 16:47:26.133,6,12,9,1,-2,1,-2,-7
2025-05-18 16:47:26.143,6,12,9,1,-2,1,-2,-7
2025-05-18 16:47:26.154,-3,17,-8,-1,-4,-3,-5,-39
2025-05-18 16:47:26.165,-3,17,-8,-1,-4,-3,-5,-39
2025-05-18 16:47:26.177,1,-18,-4,-4,0,-5,1,0
2025-05-18 16:47:26.189,-6,-10,-1,-1,3,-1,-1,4
2025-05-18 16:47:26.200,3,9,1,3,3,-2,2,2
2025-05-18 16:47:26.210,3,9,1,3,3,-2,2,2
2025-05-18 16:47:26.222,-10,12,-3,-1,-2,-5,-5,-22
2025-05-18 16:47:26.233,0,-62,-14,-6,-3,0,-1,-4
2025-05-18 16:47:26.243,0,-62,-14,-6,-3,0,-1,-4
2025-05-18 16:47:26.254,-11,-23,-7,1,-1,-1,0,5
2025-05-18 16:47:26.265,-11,-23,-7,1,-1,-1,0,5
2025-05-18 16:47:26.276,-5,45,-8,-3,0,5,4,1
2025-05-18 16:47:26.286,-20,-1,9,-5,-3,0,3,1
2025-05-18 16:47:26.297,-20,-1,9,-5,-3,0,3,1
2025-05-18 16:47:26.309,26,30,16,4,2,1,-2,15
2025-05-18 16:47:26.320,-31,-68,-18,-5,-4,-5,-1,19
2025-05-18 16:47:26.331,-31,-68,-18,-5,-4,-5,-1,19
2025-05-18 16:47:26.342,2,-9,3,-1,0,-3,1,7
2025-05-18 16:47:26.353,-6,10,-5,-5,-6,-6,1,-10
2025-05-18 16:47:26.365,-6,10,-5,-5,-6,-6,1,-10
2025-05-18 16:47:26.375,4,68,7,5,6,-2,4,-5
2025-05-18 16:47:26.386,4,68,7,5,6,-2,4,-5
2025-05-18 16:47:26.398,-1,-24,-1,-2,-3,4,3,-4
2025-05-18 16:47:26.408,7,8,6,0,-4,-1,3,-2
2025-05-18 16:47:26.419,7,8,6,0,-4,-1,3,-2
2025-05-18 16:47:26.429,-5,40,3,-5,-3,-10,-11,-10
2025-05-18 16:47:26.440,-2,-25,-6,1,-1,2,2,0
2025-05-18 16:47:26.452,27,12,-7,-4,1,6,2,-4
2025-05-18 16:47:26.462,23,70,16,-1,3,5,3,0
2025-05-18 16:47:26.473,-6,16,-12,-2,-1,1,4,-9
2025-05-18 16:47:26.485,-6,16,-12,-2,-1,1,4,-9
2025-05-18 16:47:26.496,-33,-29,-5,-7,-5,-9,-6,-15
2025-05-18 16:47:26.507,-33,-29,-5,-7,-5,-9,-6,-15
2025-05-18 16:47:26.519,-42,0,-11,0,-2,0,1,-14
2025-05-18 16:47:26.530,16,19,5,-1,2,7,6,11
2025-05-18 16:47:26.541,16,19,5,-1,2,7,6,11
2025-05-18 16:47:26.552,18,34,16,-1,-1,-4,3,3
2025-05-18 16:47:26.562,18,34,16,-1,-1,-4,3,3
2025-05-18 16:47:26.573,14,21,11,3,6,3,3,5
2025-05-18 16:47:26.585,14,21,11,3,6,3,3,5
2025-05-18 16:47:26.596,23,42,-4,-4,-1,4,7,-6
2025-05-18 16:47:26.606,23,42,-4,-4,-1,4,7,-6
2025-05-18 16:47:26.616,9,28,2,-4,-1,0,0,6
2025-05-18 16:47:26.626,9,28,2,-4,-1,0,0,6
2025-05-18 16:47:26.638,5,4,-5,1,-3,-3,2,-3
2025-05-18 16:47:26.648,3,39,-2,2,1,-3,-3,-1
2025-05-18 16:47:26.659,3,39,-2,2,1,-3,-3,-1
2025-05-18 16:47:26.670,-5,-17,-9,-6,-6,-2,5,7
2025-05-18 16:47:26.680,-5,-17,-9,-6,-6,-2,5,7
2025-05-18 16:47:26.692,24,-2,1,-3,1,-1,-3,31
2025-05-18 16:47:26.703,-21,-105,-24,-4,-4,-2,-3,-14
2025-05-18 16:47:26.713,-16,30,0,-3,-6,-8,-9,-10
2025-05-18 16:47:26.724,-16,30,0,-3,-6,-8,-9,-10
2025-05-18 16:47:26.737,-6,-25,-3,-2,-2,-2,2,-9
2025-05-18 16:47:26.749,-6,-25,-3,-2,-2,-2,2,-9
2025-05-18 16:47:26.760,3,7,3,8,4,3,7,10
2025-05-18 16:47:26.771,8,-3,4,2,0,-3,7,4
2025-05-18 16:47:26.783,8,-3,4,2,0,-3,7,4
2025-05-18 16:47:26.795,-21,-55,-8,-4,-3,-8,-1,-16
2025-05-18 16:47:26.806,-21,-55,-8,-4,-3,-8,-1,-16
2025-05-18 16:47:26.816,-9,-35,-12,2,1,4,-2,0
2025-05-18 16:47:26.827,-37,-61,-7,-6,-3,24,2,-20
2025-05-18 16:47:26.837,-37,-61,-7,-6,-3,24,2,-20
2025-05-18 16:47:26.848,-37,-61,-7,-6,-3,24,2,-20
2025-05-18 16:47:26.858,1,46,10,-3,-4,-8,2,0
2025-05-18 16:47:26.870,1,46,10,-3,-4,-8,2,0
2025-05-18 16:47:26.880,10,16,4,-1,0,-7,-2,3
2025-05-18 16:47:26.893,-25,-1,-2,-5,-1,3,6,4
2025-05-18 16:47:26.904,-25,-1,-2,-5,-1,3,6,4
2025-05-18 16:47:26.915,-7,13,15,-4,-5,-9,-4,-2
2025-05-18 16:47:26.925,-7,13,15,-4,-5,-9,-4,-2
2025-05-18 16:47:26.936,25,-9,-9,-2,-3,-7,0,-24
2025-05-18 16:47:26.947,-13,5,3,-1,2,1,6,9
2025-05-18 16:47:26.958,-13,5,3,-1,2,1,6,9
2025-05-18 16:47:26.970,-19,-31,-13,2,-2,-3,3,-7
2025-05-18 16:47:26.981,-19,-31,-13,2,-2,-3,3,-7
2025-05-18 16:47:26.992,-21,18,8,3,0,1,7,5
2025-05-18 16:47:27.002,-21,18,8,3,0,1,7,5
2025-05-18 16:47:27.014,-6,30,-10,3,1,0,1,-13
2025-05-18 16:47:27.025,-6,30,-10,3,1,0,1,-13
2025-05-18 16:47:27.036,38,49,11,0,-2,1,5,7
2025-05-18 16:47:27.047,38,49,11,0,-2,1,5,7
2025-05-18 16:47:27.059,0,-40,-14,-1,0,-3,1,-3
2025-05-18 16:47:27.073,-23,-8,3,-4,-6,-10,-6,11
2025-05-18 16:47:27.085,-26,-58,-13,-7,-4,-2,-1,-12
2025-05-18 16:47:27.095,5,5,-9,-6,-5,-2,3,7
2025-05-18 16:47:27.106,5,5,-9,-6,-5,-2,3,7
2025-05-18 16:47:27.116,17,28,1,3,2,2,-2,-12
2025-05-18 16:47:27.128,-5,13,-2,4,2,4,-1,13
2025-05-18 16:47:27.138,-39,-70,-9,-8,-5,-2,3,-8
2025-05-18 16:47:27.150,8,57,7,-2,2,-4,-1,-3
2025-05-18 16:47:27.159,8,57,7,-2,2,-4,-1,-3
2025-05-18 16:47:27.170,8,57,7,-2,2,-4,-1,-3
2025-05-18 16:47:27.181,8,14,-4,-4,-2,5,3,0
2025-05-18 16:47:27.191,-6,-13,-4,-5,-7,9,-6,4
2025-05-18 16:47:27.201,15,9,2,4,4,10,12,2
2025-05-18 16:47:27.212,-6,11,9,-5,-4,-4,0,-10
2025-05-18 16:47:27.223,-6,11,9,-5,-4,-4,0,-10
2025-05-18 16:47:27.234,12,30,7,-4,-2,-1,4,-25
2025-05-18 16:47:27.246,17,14,6,-1,-2,-7,-7,-19
2025-05-18 16:47:27.256,-11,5,0,-1,-2,0,2,14
2025-05-18 16:47:27.267,-11,5,0,-1,-2,0,2,14
2025-05-18 16:47:27.279,3,21,0,0,1,-3,2,5
2025-05-18 16:47:27.290,3,21,0,0,1,-3,2,5
2025-05-18 16:47:27.300,-33,-49,-17,2,1,-1,-1,-3
2025-05-18 16:47:27.311,-8,-29,-2,1,0,-3,-5,5
2025-05-18 16:47:27.322,-9,5,-1,-3,-2,2,3,-6
2025-05-18 16:47:27.332,26,75,16,3,0,-1,2,15
2025-05-18 16:47:27.344,26,75,16,3,0,-1,2,15
2025-05-18 16:47:27.353,0,-3,-7,-2,-1,3,7,-8
2025-05-18 16:47:27.365,0,-3,-7,-2,-1,3,7,-8
2025-05-18 16:47:27.377,-2,34,9,-3,-2,3,5,-1
2025-05-18 16:47:27.387,-2,34,9,-3,-2,3,5,-1
2025-05-18 16:47:27.398,-4,25,-1,-4,-4,-3,-7,-14
2025-05-18 16:47:27.410,-4,25,-1,-4,-4,-3,-7,-14
2025-05-18 16:47:27.421,-2,7,-9,-10,0,-2,0,20
2025-05-18 16:47:27.432,-2,7,-9,-10,0,-2,0,20
2025-05-18 16:47:27.443,-42,-26,-6,-3,-4,-4,-1,-19
2025-05-18 16:47:27.453,-15,-87,-23,5,6,5,7,-1
2025-05-18 16:47:27.463,-15,-87,-23,5,6,5,7,-1
2025-05-18 16:47:27.474,-6,-15,-10,-1,-4,-5,-1,-1
2025-05-18 16:47:27.484,-6,-15,-10,-1,-4,-5,-1,-1
2025-05-18 16:47:27.495,14,16,12,0,-1,-4,3,1
2025-05-18 16:47:27.505,14,16,12,0,-1,-4,3,1
2025-05-18 16:47:27.517,2,-10,-5,1,3,5,1,0
2025-05-18 16:47:27.528,2,-10,-5,1,3,5,1,0
2025-05-18 16:47:27.538,-2,30,7,-3,0,-1,6,3
2025-05-18 16:47:27.549,-2,30,7,-3,0,-1,6,3
2025-05-18 16:47:27.560,-16,-43,-4,-8,-7,-2,0,12
2025-05-18 16:47:27.571,-12,11,3,-1,0,1,-2,-10
2025-05-18 16:47:27.581,-12,11,3,-1,0,1,-2,-10
2025-05-18 16:47:27.593,8,-1,-9,1,-1,-8,0,-9
2025-05-18 16:47:27.604,8,-1,-9,1,-1,-8,0,-9
2025-05-18 16:47:27.613,8,-1,-9,1,-1,-8,0,-9
2025-05-18 16:47:27.624,4,12,6,0,0,-1,1,-7
2025-05-18 16:47:27.635,-16,-51,-20,-11,-2,-5,-1,-2
2025-05-18 16:47:27.645,-16,-51,-20,-11,-2,-5,-1,-2
2025-05-18 16:47:27.656,-19,3,2,3,-1,2,2,-6
2025-05-18 16:47:27.667,-19,3,2,3,-1,2,2,-6
2025-05-18 16:47:27.678,34,41,17,2,0,1,0,-29
2025-05-18 16:47:27.690,35,47,13,2,1,3,7,3
2025-05-18 16:47:27.700,35,47,13,2,1,3,7,3
2025-05-18 16:47:27.710,35,47,13,2,1,3,7,3
2025-05-18 16:47:27.721,-5,50,11,-2,4,3,3,1
2025-05-18 16:47:27.731,-5,50,11,-2,4,3,3,1
2025-05-18 16:47:27.742,-15,-55,-13,-1,0,2,4,-1
2025-05-18 16:47:27.753,-4,30,2,-3,-3,2,2,1
2025-05-18 16:47:27.763,-4,30,2,-3,-3,2,2,1
2025-05-18 16:47:27.774,-11,-16,-8,2,4,-2,0,-4
2025-05-18 16:47:27.784,-11,-16,-8,2,4,-2,0,-4
2025-05-18 16:47:27.795,14,33,6,0,-4,-1,3,-10
2025-05-18 16:47:27.806,14,33,6,0,-4,-1,3,-10
2025-05-18 16:47:27.816,11,39,2,-2,-5,-4,-1,-3
2025-05-18 16:47:27.827,11,39,2,-2,-5,-4,-1,-3
2025-05-18 16:47:27.838,2,41,16,7,2,0,7,6
2025-05-18 16:47:27.848,2,41,16,7,2,0,7,6
2025-05-18 16:47:27.859,-17,-3,-4,-5,0,3,0,-3
2025-05-18 16:47:27.870,-19,-30,-15,-8,-2,-2,-2,-8
2025-05-18 16:47:27.881,-19,-30,-15,-8,-2,-2,-2,-8
2025-05-18 16:47:27.891,-19,-30,-15,-8,-2,-2,-2,-8
2025-05-18 16:47:27.902,-24,-49,-13,-9,-8,-7,-4,-7
2025-05-18 16:47:27.914,-24,-49,-13,-9,-8,-7,-4,-7
2025-05-18 16:47:27.924,-10,28,4,-1,-2,2,-1,-7
2025-05-18 16:47:27.935,12,4,8,0,-1,0,7,4
2025-05-18 16:47:27.945,12,4,8,0,-1,0,7,4
2025-05-18 16:47:27.956,10,51,9,-5,-4,1,6,4
2025-05-18 16:47:27.967,10,51,9,-5,-4,1,6,4
2025-05-18 16:47:27.977,14,17,2,-1,2,-3,3,3
2025-05-18 16:47:27.991,11,-13,-5,-2,4,-4,3,0
2025-05-18 16:47:28.003,11,-13,-5,-2,4,-4,3,0
2025-05-18 16:47:28.012,-14,-12,-16,-4,-3,2,2,-5
2025-05-18 16:47:28.023,-14,-12,-16,-4,-3,2,2,-5
2025-05-18 16:47:28.034,-17,-38,-2,1,0,-1,-2,2
2025-05-18 16:47:28.046,14,16,0,-4,-4,2,0,4
2025-05-18 16:47:28.056,-16,13,6,2,-1,4,7,13
2025-05-18 16:47:28.067,-38,-111,-14,0,1,1,1,-8
2025-05-18 16:47:28.078,5,20,2,0,-5,2,2,-3
2025-05-18 16:47:28.090,5,20,2,0,-5,2,2,-3
2025-05-18 16:47:28.100,-14,-19,2,2,1,-1,0,0
2025-05-18 16:47:28.111,-18,31,9,-2,-3,-5,-5,-7
2025-05-18 16:47:28.122,40,52,7,-2,-3,5,1,1
2025-05-18 16:47:28.133,-26,-31,-5,0,-4,-3,-2,-6
2025-05-18 16:47:28.143,-26,-31,-5,0,-4,-3,-2,-6
2025-05-18 16:47:28.154,15,10,-4,-1,1,1,-1,-4
2025-05-18 16:47:28.164,2,13,5,-1,2,3,4,8
2025-05-18 16:47:28.175,-7,-17,-3,-2,-3,-4,-5,-15
2025-05-18 16:47:28.185,-10,4,-2,-1,2,1,3,-7
2025-05-18 16:47:28.196,9,26,6,1,0,-2,3,-6
2025-05-18 16:47:28.206,9,26,6,1,0,-2,3,-6
2025-05-18 16:47:28.218,-6,-14,-2,1,4,2,3,23
2025-05-18 16:47:28.228,9,4,-2,-4,-2,-8,1,1
2025-05-18 16:47:28.240,-59,-22,-8,-4,1,-3,-3,-17
2025-05-18 16:47:28.250,-59,-22,-8,-4,1,-3,-3,-17
2025-05-18 16:47:28.260,39,20,3,2,-1,3,4,-29
2025-05-18 16:47:28.270,39,20,3,2,-1,3,4,-29
2025-05-18 16:47:28.282,-17,-49,1,1,-1,-2,-1,1
2025-05-18 16:47:28.293,27,1,2,0,1,4,0,7
2025-05-18 16:47:28.303,-2,3,3,-1,1,1,3,2
2025-05-18 16:47:28.314,-35,-45,-26,-7,-1,-2,-4,-13
2025-05-18 16:47:28.325,-35,-45,-26,-7,-1,-2,-4,-13
2025-05-18 16:47:28.337,33,16,7,-2,1,15,5,5
2025-05-18 16:47:28.346,33,16,7,-2,1,15,5,5
2025-05-18 16:47:28.357,2,28,-2,-3,1,-6,2,21
2025-05-18 16:47:28.368,2,28,-2,-3,1,-6,2,21
2025-05-18 16:47:28.378,23,22,-8,0,-1,-1,5,0
2025-05-18 16:47:28.389,23,22,-8,0,-1,-1,5,0
2025-05-18 16:47:28.399,-5,9,0,-3,-5,-5,-5,0
2025-05-18 16:47:28.411,-5,9,0,-3,-5,-5,-5,0
2025-05-18 16:47:28.422,11,5,2,-2,-3,-5,-3,-19
2025-05-18 16:47:28.433,-20,25,3,-2,2,-5,1,-3
2025-05-18 16:47:28.443,-20,25,3,-2,2,-5,1,-3
2025-05-18 16:47:28.455,44,38,13,3,2,1,2,5
2025-05-18 16:47:28.465,9,5,8,4,5,5,7,13
2025-05-18 16:47:28.477,6,7,-10,-12,-7,-8,-10,-8
2025-05-18 16:47:28.487,-19,-16,-1,-3,-4,-1,-1,-7
2025-05-18 16:47:28.498,-38,-41,-10,-6,-3,-5,1,21
2025-05-18 16:47:28.508,-38,-41,-10,-6,-3,-5,1,21
2025-05-18 16:47:28.519,9,-24,-10,1,1,2,0,-14
2025-05-18 16:47:28.528,9,-24,-10,1,1,2,0,-14
2025-05-18 16:47:28.540,14,35,9,4,4,-3,1,-1
2025-05-18 16:47:28.550,14,35,9,4,4,-3,1,-1
2025-05-18 16:47:28.561,21,27,8,1,-1,-4,2,4
2025-05-18 16:47:28.572,21,27,8,1,-1,-4,2,4
2025-05-18 16:47:28.583,-23,-2,3,-6,-3,2,-1,2
2025-05-18 16:47:28.594,-23,-2,3,-6,-3,2,-1,2
2025-05-18 16:47:28.605,15,17,5,3,-4,-5,2,-9
2025-05-18 16:47:28.615,12,16,5,-2,-2,1,-2,5
2025-05-18 16:47:28.628,12,16,5,-2,-2,1,-2,5
2025-05-18 16:47:28.638,-47,-55,-28,-11,-8,-3,-6,-17
2025-05-18 16:47:28.648,-47,-55,-28,-11,-8,-3,-6,-17
2025-05-18 16:47:28.658,17,64,11,-5,-3,11,2,4
2025-05-18 16:47:28.670,17,64,11,-5,-3,11,2,4
2025-05-18 16:47:28.681,6,42,4,9,5,-3,4,-1
2025-05-18 16:47:28.692,6,42,4,9,5,-3,4,-1
2025-05-18 16:47:28.704,7,0,1,-2,0,3,1,-7
2025-05-18 16:47:28.715,7,0,1,-2,0,3,1,-7
2025-05-18 16:47:28.726,-1,-37,-10,-3,-2,-2,-5,-2
2025-05-18 16:47:28.736,14,37,4,0,-2,-2,0,10
2025-05-18 16:47:28.748,14,37,4,0,-2,-2,0,10
2025-05-18 16:47:28.759,-35,-55,-11,-2,-2,-1,3,-9
2025-05-18 16:47:28.769,-35,-55,-11,-2,-2,-1,3,-9
2025-05-18 16:47:28.779,-32,-29,-3,-2,-1,-5,-1,-4
2025-05-18 16:47:28.790,-32,-29,-3,-2,-1,-5,-1,-4
2025-05-18 16:47:28.800,-3,-26,-11,-2,-3,-2,-2,-7
2025-05-18 16:47:28.812,-3,-26,-11,-2,-3,-2,-2,-7
2025-05-18 16:47:28.824,14,43,0,-1,2,2,1,-1
2025-05-18 16:47:28.835,14,43,0,-1,2,2,1,-1
2025-05-18 16:47:28.846,6,31,11,0,4,1,-3,-5
2025-05-18 16:47:28.858,-28,-59,-15,-6,-2,-2,-5,-4
2025-05-18 16:47:28.870,8,-1,0,-5,-1,3,1,1
2025-05-18 16:47:28.880,13,-9,5,2,0,2,1,6
2025-05-18 16:47:28.892,13,-9,5,2,0,2,1,6
2025-05-18 16:47:28.902,1,-22,-2,-4,-3,-1,-3,-9
2025-05-18 16:47:28.912,3,-6,-6,1,3,1,-1,-2
2025-05-18 16:47:28.922,-10,-5,1,-1,0,1,0,0
2025-05-18 16:47:28.934,-37,-16,-8,-5,-3,-9,-4,-9
2025-05-18 16:47:28.945,-5,-48,-5,-1,0,0,-2,-7
2025-05-18 16:47:28.957,-5,-48,-5,-1,0,0,-2,-7
2025-05-18 16:47:28.966,-13,9,-21,-3,-5,-7,-3,-5
2025-05-18 16:47:28.976,12,52,10,3,7,2,0,2
2025-05-18 16:47:28.987,-22,-33,-6,-3,-5,-2,0,-5
2025-05-18 16:47:28.998,7,2,-8,1,-2,-4,-5,-4
2025-05-18 16:47:29.010,7,2,-8,1,-2,-4,-5,-4
2025-05-18 16:47:29.020,33,19,13,2,0,0,6,29
2025-05-18 16:47:29.031,-7,-45,-4,-3,-4,-3,-4,-6
2025-05-18 16:47:29.042,-4,16,1,-7,-5,-6,-4,-6
2025-05-18 16:47:29.052,-4,16,1,-7,-5,-6,-4,-6
2025-05-18 16:47:29.063,-2,-53,-6,2,-1,-2,-2,3
2025-05-18 16:47:29.075,-2,-53,-6,2,-1,-2,-2,3
2025-05-18 16:47:29.086,24,8,-1,4,6,2,4,3
2025-05-18 16:47:29.098,5,41,-9,-3,-3,-4,-1,12
2025-05-18 16:47:29.108,-27,-41,-2,-4,-4,-2,-3,-11
2025-05-18 16:47:29.120,20,55,10,6,9,6,2,12
2025-05-18 16:47:29.131,20,55,10,6,9,6,2,12
2025-05-18 16:47:29.142,0,18,4,0,0,3,9,-4
2025-05-18 16:47:29.153,-12,12,-7,-2,0,1,-2,-6
2025-05-18 16:47:29.163,3,21,-8,9,-1,1,1,16
2025-05-18 16:47:29.174,-31,-4,5,-1,-3,12,-3,-5
2025-05-18 16:47:29.185,-3,-52,-7,-7,0,1,-2,-3
2025-05-18 16:47:29.195,-3,-52,-7,-7,0,1,-2,-3
2025-05-18 16:47:29.206,1,30,8,-1,-1,2,3,2
2025-05-18 16:47:29.216,-17,-23,-3,-5,-7,-6,-2,-13
2025-05-18 16:47:29.226,-9,-12,3,-4,0,-1,-2,4
2025-05-18 16:47:29.237,12,9,8,-4,-3,0,-3,-4
2025-05-18 16:47:29.248,12,9,8,-4,-3,0,-3,-4
2025-05-18 16:47:29.258,-11,-2,2,4,3,-2,0,-3
2025-05-18 16:47:29.270,-11,-2,2,4,3,-2,0,-3
2025-05-18 16:47:29.280,-6,-9,-18,-6,-6,-2,-3,-11
2025-05-18 16:47:29.291,-13,-51,8,9,0,0,-6,-5
2025-05-18 16:47:29.303,-1,60,0,-2,-1,2,1,5
2025-05-18 16:47:29.313,-1,60,0,-2,-1,2,1,5
2025-05-18 16:47:29.324,28,13,2,-7,-1,-4,-3,-5
2025-05-18 16:47:29.337,28,13,2,-7,-1,-4,-3,-5
2025-05-18 16:47:29.348,5,22,-8,-7,-2,0,-3,-4
2025-05-18 16:47:29.358,-19,-30,-10,-2,-2,-4,-3,-4
2025-05-18 16:47:29.370,-19,-30,-10,-2,-2,-4,-3,-4
2025-05-18 16:47:29.381,-8,-9,1,-1,-2,0,2,-4
2025-05-18 16:47:29.391,-8,-9,1,-1,-2,0,2,-4
2025-05-18 16:47:29.402,-2,-1,3,-6,-5,-3,-4,-2
2025-05-18 16:47:29.413,-2,-1,3,-6,-5,-3,-4,-2
2025-05-18 16:47:29.423,-11,-9,-2,-2,-1,0,4,2
2025-05-18 16:47:29.434,-11,-9,-2,-2,-1,0,4,2
2025-05-18 16:47:29.446,25,24,6,2,3,-1,-6,13
2025-05-18 16:47:29.457,25,24,6,2,3,-1,-6,13
2025-05-18 16:47:29.467,-2,-15,1,-1,0,4,2,-3
2025-05-18 16:47:29.478,-17,-45,-19,-5,-5,-1,-5,-19
2025-05-18 16:47:29.488,16,12,-1,-4,-4,-3,-3,-5
2025-05-18 16:47:29.497,-9,29,-5,-3,-2,2,1,0
2025-05-18 16:47:29.508,-1,-13,-6,-1,-1,-3,1,2
2025-05-18 16:47:29.520,-30,-49,1,-4,-3,-2,-4,-7
2025-05-18 16:47:29.531,-39,-66,-9,4,-2,-3,-8,-5
2025-05-18 16:47:29.541,18,38,-5,-3,-1,-3,-2,2
2025-05-18 16:47:29.551,18,38,-5,-3,-1,-3,-2,2
2025-05-18 16:47:29.562,29,31,11,0,-1,3,1,-20
2025-05-18 16:47:29.572,-2,15,2,0,-1,-3,-1,0
2025-05-18 16:47:29.584,1,20,3,0,0,3,-2,-3
2025-05-18 16:47:29.594,-17,14,5,-2,2,2,0,-2
2025-05-18 16:47:29.604,-20,-29,5,-3,-4,-1,1,-3
2025-05-18 16:47:29.615,-20,-29,5,-3,-4,-1,1,-3
2025-05-18 16:47:29.625,35,35,12,5,6,4,2,8
2025-05-18 16:47:29.637,35,35,12,5,6,4,2,8
2025-05-18 16:47:29.649,36,28,-2,-4,-3,1,-3,-22
2025-05-18 16:47:29.660,-12,-32,-11,-6,-3,1,-1,-2
2025-05-18 16:47:29.670,1,-16,-5,0,-3,-2,-7,-7
2025-05-18 16:47:29.683,24,-9,-2,2,3,15,-1,-4
2025-05-18 16:47:29.694,24,-9,-2,2,3,15,-1,-4
2025-05-18 16:47:29.704,-30,-15,-1,-8,-3,-7,-6,4
2025-05-18 16:47:29.714,-4,12,0,1,0,1,2,-4
2025-05-18 16:47:29.725,-27,-27,-2,-4,-2,-5,-4,4
2025-05-18 16:47:29.736,-27,-27,-2,-4,-2,-5,-4,4
2025-05-18 16:47:29.746,-5,-5,13,9,2,-1,-1,11
2025-05-18 16:47:29.757,-5,-5,13,9,2,-1,-1,11
2025-05-18 16:47:29.768,-8,-21,-10,4,-1,1,-3,-2
2025-05-18 16:47:29.779,-51,-62,-19,-6,-6,-1,1,-17
2025-05-18 16:47:29.790,4,17,8,-4,0,-3,1,13
2025-05-18 16:47:29.802,11,-1,-8,-4,-3,-4,-3,0
2025-05-18 16:47:29.812,11,-1,-8,-4,-3,-4,-3,0
2025-05-18 16:47:29.823,45,37,8,6,3,-1,1,10
2025-05-18 16:47:29.834,45,37,8,6,3,-1,1,10
2025-05-18 16:47:29.845,25,48,6,-3,-1,-2,-1,3
2025-05-18 16:47:29.856,-19,5,0,4,-4,-4,-1,-10
2025-05-18 16:47:29.869,-24,-10,4,-4,-4,-4,-4,-12
2025-05-18 16:47:29.879,-24,-10,4,-4,-4,-4,-4,-12
2025-05-18 16:47:29.890,-39,-14,-17,-6,-4,-2,-6,-3
2025-05-18 16:47:29.901,7,4,-3,-4,-4,4,5,4
2025-05-18 16:47:29.912,-18,-19,-11,-7,-2,-1,-7,-8
2025-05-18 16:47:29.923,-4,20,3,2,3,3,0,2
2025-05-18 16:47:29.933,-4,20,3,2,3,3,0,2
2025-05-18 16:47:29.943,24,-15,9,5,2,3,2,-8
2025-05-18 16:47:29.955,-39,21,-1,-3,-2,1,-2,-14
2025-05-18 16:47:29.965,4,20,13,4,0,-1,1,7
2025-05-18 16:47:29.977,4,20,13,4,0,-1,1,7
2025-05-18 16:47:29.987,-9,-56,-3,2,3,2,-2,6
2025-05-18 16:47:29.997,-9,-56,-3,2,3,2,-2,6
2025-05-18 16:47:30.008,6,-13,-1,3,8,3,1,5
2025-05-18 16:47:30.020,11,8,-17,-5,-5,-5,-2,1
2025-05-18 16:47:30.032,12,-16,1,2,-3,-5,-3,3
2025-05-18 16:47:30.042,13,40,3,-4,-4,-1,-2,10
2025-05-18 16:47:30.053,13,40,3,-4,-4,-1,-2,10
2025-05-18 16:47:30.065,-28,-61,-15,-4,-3,-1,-9,-13
2025-05-18 16:47:30.076,6,7,5,3,5,2,5,-5
2025-05-18 16:47:30.088,-11,1,10,4,-2,-1,1,2
2025-05-18 16:47:30.099,-30,-71,-22,-6,-7,-4,-4,-11
2025-05-18 16:47:30.109,-30,-71,-22,-6,-7,-4,-4,-11
2025-05-18 16:47:30.120,15,-11,-9,-1,-1,-1,1,-26
2025-05-18 16:47:30.131,5,4,0,-4,1,2,-3,4
2025-05-18 16:47:30.141,-3,2,7,-1,-2,-1,2,-2
2025-05-18 16:47:30.151,14,20,-1,0,1,1,-6,-15
2025-05-18 16:47:30.162,-2,3,2,3,3,-1,-2,0
2025-05-18 16:47:30.173,-2,3,2,3,3,-1,-2,0
2025-05-18 16:47:30.183,44,69,10,2,-2,-4,-3,-14
2025-05-18 16:47:30.193,13,34,8,2,2,3,1,11
2025-05-18 16:47:30.204,-14,-30,-4,-1,0,-4,-3,15
2025-05-18 16:47:30.214,-14,-30,-4,-1,0,-4,-3,15
2025-05-18 16:47:30.226,11,-16,-4,-3,-3,-6,-2,3
2025-05-18 16:47:30.238,2,51,3,5,8,1,2,5
2025-05-18 16:47:30.250,-8,7,-1,-2,-2,1,-2,1
2025-05-18 16:47:30.260,-8,7,-1,-2,-2,1,-2,1
2025-05-18 16:47:30.271,-11,1,-3,0,-1,-5,-6,3
2025-05-18 16:47:30.283,-10,-28,-1,1,2,2,1,4
2025-05-18 16:47:30.294,-10,-28,-1,1,2,2,1,4
2025-05-18 16:47:30.305,-6,-6,0,-5,-6,-3,-4,9
2025-05-18 16:47:30.315,-6,-6,0,-5,-6,-3,-4,9
2025-05-18 16:47:30.326,-3,7,-1,0,-1,-3,-1,4
2025-05-18 16:47:30.337,-3,7,-1,0,-1,-3,-1,4
2025-05-18 16:47:30.349,28,22,15,3,4,5,1,4
2025-05-18 16:47:30.359,28,22,15,3,4,5,1,4
2025-05-18 16:47:30.370,8,8,0,0,4,1,-2,3
2025-05-18 16:47:30.380,8,8,0,0,4,1,-2,3
2025-05-18 16:47:30.391,5,3,-3,-2,-2,3,6,20
2025-05-18 16:47:30.402,-16,21,-7,-7,-3,-1,0,9
2025-05-18 16:47:30.412,-70,-43,-16,-7,-6,-4,-11,-21
2025-05-18 16:47:30.423,34,11,4,4,2,0,-7,-2
2025-05-18 16:47:30.434,34,11,4,4,2,0,-7,-2
2025-05-18 16:47:30.445,6,-27,-2,7,1,-1,-3,-1
2025-05-18 16:47:30.455,6,-27,-2,7,1,-1,-3,-1
2025-05-18 16:47:30.465,8,-49,-5,-4,-2,-4,-3,-9
2025-05-18 16:47:30.477,8,-49,-5,-4,-2,-4,-3,-9
2025-05-18 16:47:30.488,11,22,-11,-2,-3,-2,-4,-3
2025-05-18 16:47:30.499,11,22,-11,-2,-3,-2,-4,-3
2025-05-18 16:47:30.509,-8,-7,2,3,3,-2,1,10
2025-05-18 16:47:30.518,-3,-28,-1,-4,-1,-1,0,9
2025-05-18 16:47:30.530,1,-45,-10,-5,-4,-5,-10,-14
2025-05-18 16:47:30.541,8,4,7,6,1,0,-1,4
2025-05-18 16:47:30.552,8,4,7,6,1,0,-1,4
2025-05-18 16:47:30.562,17,54,20,3,2,2,2,-5
2025-05-18 16:47:30.573,6,14,9,5,3,0,-4,0
2025-05-18 16:47:30.583,7,34,3,-4,-1,2,-2,4
2025-05-18 16:47:30.594,7,34,3,-4,-1,2,-2,4
2025-05-18 16:47:30.604,-4,-15,1,4,2,0,-2,7
2025-05-18 16:47:30.615,-4,-15,1,4,2,0,-2,7
2025-05-18 16:47:30.627,-8,35,0,-6,-3,-4,-6,-2
2025-05-18 16:47:30.637,15,32,3,3,2,3,7,5
2025-05-18 16:47:30.648,24,-18,-5,0,-2,2,-2,9
2025-05-18 16:47:30.658,24,-18,-5,0,-2,2,-2,9
2025-05-18 16:47:30.669,11,32,14,-3,-2,-1,-2,9
2025-05-18 16:47:30.680,11,32,14,-3,-2,-1,-2,9
2025-05-18 16:47:30.691,6,6,9,-1,1,-2,-2,4
2025-05-18 16:47:30.702,-8,-26,-8,3,-1,-1,6,10
2025-05-18 16:47:30.711,-3,-6,-1,2,-3,-4,-7,0
2025-05-18 16:47:30.721,-11,-1,-6,1,0,-1,-4,4
2025-05-18 16:47:30.732,-11,-1,-6,1,0,-1,-4,4
2025-05-18 16:47:30.743,-14,22,1,-4,-4,-4,-2,-6
2025-05-18 16:47:30.755,21,88,7,2,-3,0,-1,4
2025-05-18 16:47:30.766,14,2,9,5,10,6,1,22
2025-05-18 16:47:30.777,14,2,9,5,10,6,1,22
2025-05-18 16:47:30.790,-9,-42,-19,-5,-6,-4,-7,-2
2025-05-18 16:47:30.801,-9,-42,-19,-5,-6,-4,-7,-2
2025-05-18 16:47:30.813,11,-15,7,1,-1,-2,-2,-4
2025-05-18 16:47:30.823,9,10,10,3,2,0,1,-2
2025-05-18 16:47:30.836,7,3,0,0,5,2,-1,-7
2025-05-18 16:47:30.845,-30,-81,-31,1,-2,-3,-6,-9
2025-05-18 16:47:30.856,-30,-81,-31,1,-2,-3,-6,-9
2025-05-18 16:47:30.866,-5,0,-5,-6,-5,-5,-7,-9
2025-05-18 16:47:30.877,-6,-3,-7,-3,-3,-1,4,2
2025-05-18 16:47:30.889,-17,-6,7,2,0,-1,-1,-2
2025-05-18 16:47:30.900,-14,-28,-11,-4,0,4,5,-6
2025-05-18 16:47:30.911,1,-10,-1,5,0,0,-6,1
2025-05-18 16:47:30.923,4,-4,-3,-2,0,-2,3,-8
2025-05-18 16:47:30.933,-22,-46,-9,-8,-4,-2,-5,5
2025-05-18 16:47:30.944,9,14,-2,1,-5,1,2,-11
2025-05-18 16:47:30.954,-17,-1,-2,-8,-6,-6,-9,-10
2025-05-18 16:47:30.964,11,34,4,2,1,-2,0,-2
2025-05-18 16:47:30.975,11,34,4,2,1,-2,0,-2
2025-05-18 16:47:30.985,25,27,13,5,1,-2,0,13
2025-05-18 16:47:30.996,3,28,2,-2,1,-1,3,1
2025-05-18 16:47:31.006,10,24,-8,3,-1,-4,-3,6
2025-05-18 16:47:31.017,10,24,-8,3,-1,-4,-3,6
2025-05-18 16:47:31.027,-6,-4,2,-1,2,3,-1,-4
2025-05-18 16:47:31.038,-6,-4,2,-1,2,3,-1,-4
2025-05-18 16:47:31.049,19,23,9,3,3,-2,1,13
2025-05-18 16:47:31.060,-2,30,4,-1,-1,0,3,-5
2025-05-18 16:47:31.071,-12,-39,-13,-1,-3,-2,-7,-4
2025-05-18 16:47:31.081,12,14,3,-1,-2,0,-5,-29
2025-05-18 16:47:31.091,12,14,3,-1,-2,0,-5,-29
2025-05-18 16:47:31.103,-30,13,6,-2,2,1,3,21
2025-05-18 16:47:31.112,28,25,3,1,0,0,-4,8
2025-05-18 16:47:31.123,-4,31,-6,-7,-6,-3,1,-5
2025-05-18 16:47:31.132,7,16,5,2,3,3,-3,7
2025-05-18 16:47:31.145,-1,-20,-5,-5,-1,-4,-6,6
2025-05-18 16:47:31.155,-1,-20,-5,-5,-1,-4,-6,6
2025-05-18 16:47:31.166,-8,-33,-10,-3,-2,-2,-5,3
2025-05-18 16:47:31.177,-8,-33,-10,-3,-2,-2,-5,3
2025-05-18 16:47:31.187,12,12,7,4,-1,-3,1,32
2025-05-18 16:47:31.197,12,12,7,4,-1,-3,1,32
2025-05-18 16:47:31.209,7,0,6,2,0,0,-3,-1
2025-05-18 16:47:31.220,7,0,6,2,0,0,-3,-1
2025-05-18 16:47:31.230,0,-20,-6,-1,-1,0,-3,-4
2025-05-18 16:47:31.241,0,-20,-6,-1,-1,0,-3,-4
2025-05-18 16:47:31.251,-7,11,2,4,2,2,-1,6
2025-05-18 16:47:31.261,4,-4,3,-2,0,-2,-7,-1
2025-05-18 16:47:31.273,4,-4,3,-2,0,-2,-7,-1
2025-05-18 16:47:31.283,-22,-24,4,2,5,2,0,-1
2025-05-18 16:47:31.296,-22,-24,4,2,5,2,0,-1
2025-05-18 16:47:31.307,12,-7,4,-2,-4,0,2,7
2025-05-18 16:47:31.318,12,-7,4,-2,-4,0,2,7
2025-05-18 16:47:31.328,-4,-8,1,1,0,-3,-3,0
2025-05-18 16:47:31.339,-4,-8,1,1,0,-3,-3,0
2025-05-18 16:47:31.350,20,10,0,4,2,5,-3,7
2025-05-18 16:47:31.361,20,10,0,4,2,5,-3,7
2025-05-18 16:47:31.371,5,-8,-7,-2,-2,-2,-4,-1
2025-05-18 16:47:31.381,2,42,7,-5,-5,-1,-2,-5
2025-05-18 16:47:31.392,-19,-18,3,2,0,-2,0,-6
2025-05-18 16:47:31.404,-4,30,-2,-2,-1,0,-4,0
2025-05-18 16:47:31.415,-4,30,-2,-2,-1,0,-4,0
2025-05-18 16:47:31.424,-25,-17,-10,1,-3,-1,2,3
2025-05-18 16:47:31.435,24,21,-2,0,-4,-4,-4,2
2025-05-18 16:47:31.446,15,-7,-11,-7,-5,-3,-5,-26
2025-05-18 16:47:31.456,15,-7,-11,-7,-5,-3,-5,-26
2025-05-18 16:47:31.467,16,23,7,2,1,-1,-4,6
2025-05-18 16:47:31.477,16,23,7,2,1,-1,-4,6
2025-05-18 16:47:31.489,-9,-14,1,-4,-5,-6,-7,-3
2025-05-18 16:47:31.500,-8,-18,0,2,-1,1,7,32
2025-05-18 16:47:31.510,17,-30,-14,2,-1,-1,-6,5
2025-05-18 16:47:31.521,17,-30,-14,2,-1,-1,-6,5
2025-05-18 16:47:31.532,-14,-2,-3,-2,-3,-4,-6,3
2025-05-18 16:47:31.544,-14,-2,-3,-2,-3,-4,-6,3
2025-05-18 16:47:31.555,-9,-8,8,2,2,-1,-2,-4
2025-05-18 16:47:31.566,-5,-18,-4,0,-1,-2,-3,2
2025-05-18 16:47:31.577,-5,-18,-4,0,-1,-2,-3,2
2025-05-18 16:47:31.588,-11,-23,-18,1,1,-1,-5,-2
2025-05-18 16:47:31.599,-11,-23,-18,1,1,-1,-5,-2
2025-05-18 16:47:31.610,-4,-30,-1,2,-2,-1,-4,1
2025-05-18 16:47:31.621,-20,23,1,-3,-4,0,1,0
2025-05-18 16:47:31.633,-12,-32,0,0,-1,-1,-1,1
2025-05-18 16:47:31.644,14,20,0,-2,2,2,0,10
2025-05-18 16:47:31.654,14,20,0,-2,2,2,0,10
2025-05-18 16:47:31.665,19,-8,-10,-2,0,5,3,4
2025-05-18 16:47:31.676,14,-5,-2,0,-2,-1,-2,2
2025-05-18 16:47:31.687,2,18,7,-2,-4,-3,-3,0
2025-05-18 16:47:31.699,2,18,7,-2,-4,-3,-3,0
2025-05-18 16:47:31.710,13,-14,3,2,3,0,-1,9
2025-05-18 16:47:31.722,13,-14,3,2,3,0,-1,9
2025-05-18 16:47:31.732,14,2,0,-2,-3,-2,-5,-7
2025-05-18 16:47:31.743,-3,-19,4,5,-1,3,5,-3
2025-05-18 16:47:31.754,-14,-5,-2,1,2,1,-3,1
2025-05-18 16:47:31.765,-18,-31,-6,-1,-2,-4,-2,-11
2025-05-18 16:47:31.776,-18,-31,-6,-1,-2,-4,-2,-11
2025-05-18 16:47:31.787,2,7,-1,1,-1,0,-3,9
2025-05-18 16:47:31.798,7,-24,-6,-1,-1,2,4,-5
2025-05-18 16:47:31.810,22,45,13,-1,-3,-3,-3,8
2025-05-18 16:47:31.820,22,45,13,-1,-3,-3,-3,8
2025-05-18 16:47:31.830,-9,-3,7,4,0,-1,-2,4
2025-05-18 16:47:31.841,-9,-3,7,4,0,-1,-2,4
2025-05-18 16:47:31.851,-1,-8,-5,-2,1,-3,-3,2
2025-05-18 16:47:31.862,-4,15,14,-3,1,4,0,-7
2025-05-18 16:47:31.874,2,24,2,-5,-8,-2,-6,1
2025-05-18 16:47:31.884,1,-48,-9,-3,-4,-3,-2,-6
2025-05-18 16:47:31.897,1,-48,-9,-3,-4,-3,-2,-6
2025-05-18 16:47:31.908,-42,-27,-24,-4,1,-3,-8,-19
2025-05-18 16:47:31.919,-17,-3,-8,0,-5,-5,-3,6
2025-05-18 16:47:31.930,14,31,8,6,1,2,-3,-1
2025-05-18 16:47:31.942,6,-9,-6,-10,-5,1,0,3
2025-05-18 16:47:31.954,37,54,17,3,1,-1,-1,22
2025-05-18 16:47:31.964,14,1,5,-1,-2,1,2,3
2025-05-18 16:47:31.974,11,17,8,1,2,2,-3,-12
2025-05-18 16:47:31.984,-23,8,-2,-4,0,2,1,30
2025-05-18 16:47:31.995,-14,-12,1,-1,1,-4,-2,4
2025-05-18 16:47:32.007,3,-4,-6,0,-3,1,2,7
2025-05-18 16:47:32.017,3,-4,-6,0,-3,1,2,7
2025-05-18 16:47:32.028,-21,-2,5,-4,-5,-6,-9,-11
2025-05-18 16:47:32.038,20,23,8,4,3,1,3,-5
2025-05-18 16:47:32.049,-11,-14,-3,-2,-4,-10,-7,8
2025-05-18 16:47:32.058,-11,-14,-3,-2,-4,-10,-7,8
2025-05-18 16:47:32.070,22,13,6,2,3,4,0,6
2025-05-18 16:47:32.080,22,13,6,2,3,4,0,6
2025-05-18 16:47:32.090,-25,-32,-15,-3,-2,-4,-4,0
2025-05-18 16:47:32.102,-2,-40,-21,-8,-2,-1,1,0
2025-05-18 16:47:32.112,10,-4,-2,-1,-5,-4,-4,-6
2025-05-18 16:47:32.123,-17,1,0,-2,-4,-8,-9,-10
2025-05-18 16:47:32.135,-17,1,0,-2,-4,-8,-9,-10
2025-05-18 16:47:32.146,-4,-5,1,4,3,3,-1,-2
2025-05-18 16:47:32.157,-4,-5,1,4,3,3,-1,-2
2025-05-18 16:47:32.169,-2,14,3,3,0,0,-1,6
2025-05-18 16:47:32.179,-2,14,3,3,0,0,-1,6
2025-05-18 16:47:32.189,10,-5,-4,-4,-1,2,-3,-1
2025-05-18 16:47:32.199,10,-5,-4,-4,-1,2,-3,-1
2025-05-18 16:47:32.210,-3,4,1,1,0,-1,-3,1
2025-05-18 16:47:32.220,-3,4,1,1,0,-1,-3,1
2025-05-18 16:47:32.231,8,-15,-3,0,-2,1,-6,-7
2025-05-18 16:47:32.242,-12,4,10,-1,-6,-2,6,7
2025-05-18 16:47:32.254,2,24,-16,3,-1,-1,0,9
2025-05-18 16:47:32.264,2,24,-16,3,-1,-1,0,9
2025-05-18 16:47:32.273,23,18,3,-5,0,-2,-4,9
2025-05-18 16:47:32.284,23,18,3,-5,0,-2,-4,9
2025-05-18 16:47:32.294,8,0,-2,-1,-1,-3,0,-13
2025-05-18 16:47:32.305,-23,-54,-1,-4,1,-1,-1,5
2025-05-18 16:47:32.316,-3,-20,1,-3,-2,-4,-2,4
2025-05-18 16:47:32.327,13,-13,6,4,3,-1,-3,-4
2025-05-18 16:47:32.337,13,-13,6,4,3,-1,-3,-4
2025-05-18 16:47:32.350,1,-15,-3,-1,0,2,0,3
2025-05-18 16:47:32.361,-16,-21,-10,-2,-2,1,-1,-6
2025-05-18 16:47:32.373,1,-3,1,-1,-2,-2,-3,2
2025-05-18 16:47:32.383,1,-3,1,-1,-2,-2,-3,2
2025-05-18 16:47:32.394,-10,9,-5,-6,-5,-4,-4,-6
2025-05-18 16:47:32.405,-10,9,-5,-6,-5,-4,-4,-6
2025-05-18 16:47:32.416,11,-13,-3,-1,-1,0,-1,-4
2025-05-18 16:47:32.428,-16,-17,-4,-1,-1,-2,-3,-2
2025-05-18 16:47:32.438,-16,-17,-4,-1,-1,-2,-3,-2
2025-05-18 16:47:32.449,-11,-10,-11,-3,0,0,0,-3
2025-05-18 16:47:32.460,-11,-10,-11,-3,0,0,0,-3
2025-05-18 16:47:32.471,-22,23,13,7,4,-1,-3,25
2025-05-18 16:47:32.482,-30,-70,-16,-6,-5,-5,-5,-23
2025-05-18 16:47:32.493,-3,-8,-4,0,-4,-4,-2,-9
2025-05-18 16:47:32.504,-4,17,-3,2,3,4,3,3
2025-05-18 16:47:32.515,-5,-17,-6,-4,-4,0,-2,-11
2025-05-18 16:47:32.525,-5,-17,-6,-4,-4,0,-2,-11
2025-05-18 16:47:32.537,27,44,15,4,4,2,1,5
2025-05-18 16:47:32.547,-22,-13,3,-1,-1,-2,-1,-12
2025-05-18 16:47:32.557,-19,-53,-5,-1,-5,-3,-2,-15
2025-05-18 16:47:32.569,-37,-9,-2,0,-3,-3,-6,-15
2025-05-18 16:47:32.580,-37,-9,-2,0,-3,-3,-6,-15
2025-05-18 16:47:32.590,13,2,-6,-3,-4,-4,-1,10
2025-05-18 16:47:32.601,-6,-4,-16,-1,-1,-4,-6,-10
2025-05-18 16:47:32.611,-5,-29,-6,-2,-3,-1,-2,-2
2025-05-18 16:47:32.622,-5,-29,-6,-2,-3,-1,-2,-2
2025-05-18 16:47:32.633,-3,-36,-6,1,0,2,3,7
2025-05-18 16:47:32.645,-3,-36,-6,1,0,2,3,7
2025-05-18 16:47:32.655,17,36,10,-2,-1,-1,-2,-7
2025-05-18 16:47:32.667,8,-2,8,0,-1,0,2,13
2025-05-18 16:47:32.677,-3,-6,-4,-5,-1,-1,-4,-14
2025-05-18 16:47:32.688,3,3,2,0,-2,-5,-5,3
2025-05-18 16:47:32.698,3,3,2,0,-2,-5,-5,3
2025-05-18 16:47:32.710,32,19,-1,-2,0,0,2,9
2025-05-18 16:47:32.720,32,19,-1,-2,0,0,2,9
2025-05-18 16:47:32.730,10,-22,-9,-4,1,1,2,-1
2025-05-18 16:47:32.742,10,-22,-9,-4,1,1,2,-1
2025-05-18 16:47:32.752,-23,2,0,-5,-2,0,-2,6
2025-05-18 16:47:32.764,-23,2,0,-5,-2,0,-2,6
2025-05-18 16:47:32.775,-3,11,4,3,-2,-3,-3,-23
2025-05-18 16:47:32.786,-20,-35,-5,-5,0,-5,0,2
2025-05-18 16:47:32.797,-39,-10,-7,4,2,-1,-4,-2
2025-05-18 16:47:32.809,-16,-18,-1,1,-2,-1,0,3
2025-05-18 16:47:32.820,-16,-18,-1,1,-2,-1,0,3
2025-05-18 16:47:32.831,3,-6,-7,-3,0,0,-3,0
2025-05-18 16:47:32.841,7,13,11,-2,-1,0,1,9
2025-05-18 16:47:32.852,11,6,-5,-4,1,-1,0,0
2025-05-18 16:47:32.862,11,6,-5,-4,1,-1,0,0
2025-05-18 16:47:32.874,-9,10,3,0,-2,-4,1,3
2025-05-18 16:47:32.884,-9,10,3,0,-2,-4,1,3
2025-05-18 16:47:32.894,32,20,2,-3,-3,-1,2,7
2025-05-18 16:47:32.906,14,14,5,-1,2,2,-1,4
2025-05-18 16:47:32.918,-10,6,-15,-1,-4,-1,1,11
2025-05-18 16:47:32.930,17,25,2,-2,-1,0,0,0
2025-05-18 16:47:32.940,17,25,2,-2,-1,0,0,0
2025-05-18 16:47:32.953,-36,-43,-5,-3,-2,1,1,-24
2025-05-18 16:47:32.963,5,14,9,4,1,-1,-1,7
2025-05-18 16:47:32.974,-18,-18,2,3,1,-3,-3,-3
2025-05-18 16:47:32.984,12,30,0,9,5,2,0,-20
2025-05-18 16:47:32.996,17,26,5,2,1,-4,0,7
2025-05-18 16:47:33.006,17,26,5,2,1,-4,0,7
2025-05-18 16:47:33.016,11,34,4,-3,-4,-3,-1,-7
2025-05-18 16:47:33.028,-20,7,5,0,3,4,6,4
2025-05-18 16:47:33.039,-11,-38,-3,-4,-4,-6,-1,5
2025-05-18 16:47:33.050,-9,-6,1,-3,-1,-3,1,-5
2025-05-18 16:47:33.060,-9,-6,1,-3,-1,-3,1,-5
2025-05-18 16:47:33.070,12,23,4,1,1,-2,1,3
2025-05-18 16:47:33.080,12,23,4,1,1,-2,1,3
2025-05-18 16:47:33.092,-35,-28,-11,-3,-4,-2,-4,-13
2025-05-18 16:47:33.103,-35,-28,-11,-3,-4,-2,-4,-13
2025-05-18 16:47:33.113,-10,17,-4,-4,0,2,-1,-6
2025-05-18 16:47:33.124,-10,17,-4,-4,0,2,-1,-6
2025-05-18 16:47:33.135,22,14,0,1,-1,-1,-4,-31
2025-05-18 16:47:33.147,22,14,0,1,-1,-1,-4,-31
2025-05-18 16:47:33.160,-7,-25,-3,1,0,2,5,13
2025-05-18 16:47:33.170,3,2,2,2,-1,-1,-2,-9
2025-05-18 16:47:33.181,3,2,2,2,-1,-1,-2,-9
2025-05-18 16:47:33.191,-5,8,-5,-2,-4,-2,3,3
2025-05-18 16:47:33.202,-5,8,-5,-2,-4,-2,3,3
2025-05-18 16:47:33.212,19,14,1,1,-1,-1,3,7
2025-05-18 16:47:33.222,19,14,1,1,-1,-1,3,7
2025-05-18 16:47:33.232,2,-24,-8,-6,-4,-2,-2,-3
2025-05-18 16:47:33.244,2,-24,-8,-6,-4,-2,-2,-3
2025-05-18 16:47:33.255,-2,18,-1,-9,-4,-3,-2,8
2025-05-18 16:47:33.266,-2,18,-1,-9,-4,-3,-2,8
2025-05-18 16:47:33.277,-11,24,-7,-4,-2,-3,-2,7
2025-05-18 16:47:33.288,-18,-82,-18,-4,2,1,-6,-14
2025-05-18 16:47:33.298,19,31,1,-1,-4,-2,3,-8
2025-05-18 16:47:33.310,-17,-11,-3,0,-3,-3,-2,-9
2025-05-18 16:47:33.321,-17,-11,-3,0,-3,-3,-2,-9
2025-05-18 16:47:33.331,2,41,16,7,3,1,2,12
2025-05-18 16:47:33.341,2,41,16,7,3,1,2,12
2025-05-18 16:47:33.352,-19,-28,-4,2,3,1,0,-7
2025-05-18 16:47:33.363,-19,-28,-4,2,3,1,0,-7
2025-05-18 16:47:33.374,-23,-15,-3,-5,-5,-2,8,-4
2025-05-18 16:47:33.384,-23,-15,-3,-5,-5,-2,8,-4
2025-05-18 16:47:33.395,-28,-57,-23,1,-1,0,0,-5
2025-05-18 16:47:33.406,22,31,3,-1,-1,-3,-2,13
2025-05-18 16:47:33.416,3,-32,-5,-4,0,-4,-3,-7
2025-05-18 16:47:33.428,-8,5,2,0,-3,-5,-5,-17
2025-05-18 16:47:33.437,9,9,-5,0,0,5,4,-6
2025-05-18 16:47:33.447,9,9,-5,0,0,5,4,-6
2025-05-18 16:47:33.458,-7,-1,-8,-2,-1,-1,0,-14
2025-05-18 16:47:33.469,3,29,3,-6,-1,0,2,6
2025-05-18 16:47:33.480,-13,-8,-38,-4,-3,-4,-5,-11
2025-05-18 16:47:33.489,-23,-46,1,0,2,0,1,4
2025-05-18 16:47:33.500,-23,-46,1,0,2,0,1,4
2025-05-18 16:47:33.510,-3,-18,3,2,2,-1,-6,-16
2025-05-18 16:47:33.520,13,9,15,-3,-4,1,4,-19
2025-05-18 16:47:33.533,19,28,3,0,0,0,2,6
2025-05-18 16:47:33.542,19,28,3,0,0,0,2,6
2025-05-18 16:47:33.555,3,14,13,-1,-1,-1,2,15
2025-05-18 16:47:33.566,3,14,13,-1,-1,-1,2,15
2025-05-18 16:47:33.575,7,-22,4,3,-2,-1,3,3
2025-05-18 16:47:33.585,-14,-7,-1,0,1,-3,-2,11
2025-05-18 16:47:33.597,-11,-42,-29,-3,-1,-3,-7,-40
2025-05-18 16:47:33.607,-25,-13,-4,-4,-3,-2,-3,-2
2025-05-18 16:47:33.618,-22,28,7,-3,-6,-3,1,4
2025-05-18 16:47:33.629,15,-13,-1,0,2,2,-1,-1
2025-05-18 16:47:33.640,-29,22,-11,-8,-3,-2,3,6
2025-05-18 16:47:33.652,10,21,-2,-6,-4,-6,-3,-8
2025-05-18 16:47:33.662,10,21,-2,-6,-4,-6,-3,-8
2025-05-18 16:47:33.673,-6,8,-18,-3,1,2,6,22
2025-05-18 16:47:33.683,-6,8,-18,-3,1,2,6,22
2025-05-18 16:47:33.695,11,31,14,0,-2,-2,4,9
2025-05-18 16:47:33.705,16,27,-3,6,5,5,-1,5
2025-05-18 16:47:33.715,-1,-10,12,2,2,3,4,-1
2025-05-18 16:47:33.725,-1,-10,12,2,2,3,4,-1
2025-05-18 16:47:33.736,-7,-1,1,2,1,0,5,0
2025-05-18 16:47:33.746,-7,-1,1,2,1,0,5,0
2025-05-18 16:47:33.757,-2,-1,5,-2,0,0,5,1
2025-05-18 16:47:33.768,-39,-15,0,-1,1,-2,-6,39
2025-05-18 16:47:33.779,-5,36,15,0,0,1,5,3
2025-05-18 16:47:33.789,2,13,-1,-4,-2,2,2,-7
2025-05-18 16:47:33.800,2,13,-1,-4,-2,2,2,-7
2025-05-18 16:47:33.811,-4,-10,-3,2,0,-2,2,-16
2025-05-18 16:47:33.823,8,-3,4,-1,0,0,0,-4
2025-05-18 16:47:33.837,-11,-20,0,-3,-5,0,0,-5
2025-05-18 16:47:33.849,-1,12,-5,-7,-4,-1,2,-3
2025-05-18 16:47:33.859,-1,12,-5,-7,-4,-1,2,-3
2025-05-18 16:47:33.869,-10,-1,1,1,-3,-4,-5,6
2025-05-18 16:47:33.880,9,31,-5,-2,-1,-1,0,-14
2025-05-18 16:47:33.891,-16,48,-2,-2,-4,-3,-1,2
2025-05-18 16:47:33.903,-16,48,-2,-2,-4,-3,-1,2
2025-05-18 16:47:33.915,-23,-44,-6,-3,-2,-2,1,-13
2025-05-18 16:47:33.926,-23,-44,-6,-3,-2,-2,1,-13
2025-05-18 16:47:33.938,4,-13,0,-3,-2,-2,2,8
2025-05-18 16:47:33.949,-31,3,-18,-4,1,0,-3,2
2025-05-18 16:47:33.960,-22,-1,-12,-5,-4,-4,0,-8
2025-05-18 16:47:33.970,-8,-23,-5,-2,-2,-4,0,-12
2025-05-18 16:47:33.981,-8,-23,-5,-2,-2,-4,0,-12
2025-05-18 16:47:33.992,21,29,5,0,2,5,5,5
2025-05-18 16:47:34.004,18,-10,0,-1,2,-2,-3,7
2025-05-18 16:47:34.015,2,6,-2,1,-1,-4,3,0
2025-05-18 16:47:34.027,34,53,10,1,-1,1,0,1
2025-05-18 16:47:34.037,-14,5,2,-2,-4,-1,-4,-16
2025-05-18 16:47:34.048,-14,5,2,-2,-4,-1,-4,-16
2025-05-18 16:47:34.058,-3,3,-2,2,3,7,9,6
2025-05-18 16:47:34.069,-3,3,-2,2,3,7,9,6
2025-05-18 16:47:34.081,-5,1,3,-1,2,-2,3,1
2025-05-18 16:47:34.092,10,5,8,0,0,2,3,1
2025-05-18 16:47:34.104,10,5,8,0,0,2,3,1
2025-05-18 16:47:34.114,-7,2,2,4,2,4,9,9
2025-05-18 16:47:34.126,-7,2,2,4,2,4,9,9
2025-05-18 16:47:34.136,-1,-15,-16,-3,-1,0,4,2
2025-05-18 16:47:34.148,18,-5,5,-2,-1,-4,-1,-29
2025-05-18 16:47:34.160,18,-5,5,-2,-1,-4,-1,-29
2025-05-18 16:47:34.173,-1,6,-8,-2,-2,2,8,11
2025-05-18 16:47:34.183,-1,6,-8,-2,-2,2,8,11
2025-05-18 16:47:34.195,-7,-1,2,-6,-3,-4,-2,-3
2025-05-18 16:47:34.207,-31,-17,-3,0,0,-2,-4,5
2025-05-18 16:47:34.220,5,9,3,-5,1,-1,1,-5
2025-05-18 16:47:34.230,19,3,-2,3,3,-2,-7,-6
2025-05-18 16:47:34.241,12,43,8,-1,1,4,9,1
2025-05-18 16:47:34.252,-16,-2,-7,-5,-5,-3,-7,-6
2025-05-18 16:47:34.263,-10,5,1,1,1,0,4,6
2025-05-18 16:47:34.273,16,5,-1,-1,-4,-1,4,2
2025-05-18 16:47:34.283,16,5,-1,-1,-4,-1,4,2
2025-05-18 16:47:34.295,-15,6,-2,2,3,0,-1,-6
2025-05-18 16:47:34.306,-15,6,-2,2,3,0,-1,-6
2025-05-18 16:47:34.315,-4,-6,-2,-4,-5,-2,-2,-9
2025-05-18 16:47:34.328,11,-3,-4,2,-2,1,-1,5
2025-05-18 16:47:34.338,-11,-14,-9,-1,-2,3,3,4
2025-05-18 16:47:34.348,-11,-14,-9,-1,-2,3,3,4
2025-05-18 16:47:34.360,-17,-1,-4,-5,0,4,7,-1
2025-05-18 16:47:34.372,21,28,9,-2,-2,1,0,12
2025-05-18 16:47:34.383,-8,-6,-8,-7,-6,-4,-2,-6
2025-05-18 16:47:34.394,-42,-35,-13,1,6,-2,1,-6
2025-05-18 16:47:34.404,-42,-35,-13,1,6,-2,1,-6
2025-05-18 16:47:34.416,14,41,8,-2,-4,-2,3,-3
2025-05-18 16:47:34.426,14,41,8,-2,-4,-2,3,-3
2025-05-18 16:47:34.437,-15,0,-6,-4,-2,-5,-1,-5
2025-05-18 16:47:34.447,5,37,10,-3,-3,-2,-4,5
2025-05-18 16:47:34.458,13,31,-1,7,5,1,3,6
2025-05-18 16:47:34.468,13,31,-1,7,5,1,3,6
2025-05-18 16:47:34.479,-2,-2,4,1,-2,1,6,3
2025-05-18 16:47:34.490,-2,-2,4,1,-2,1,6,3
2025-05-18 16:47:34.501,-6,-15,-13,-2,-3,-1,3,2
2025-05-18 16:47:34.512,-7,-23,-8,-3,-4,-2,-7,0
2025-05-18 16:47:34.523,-18,-27,0,-5,-4,0,-3,-8
2025-05-18 16:47:34.534,7,8,6,-2,-2,-1,1,-6
2025-05-18 16:47:34.545,7,8,6,-2,-2,-1,1,-6
2025-05-18 16:47:34.556,-1,15,3,-3,1,-1,-3,3
2025-05-18 16:47:34.566,-12,-5,-3,6,1,-1,-3,18
2025-05-18 16:47:34.577,19,40,8,1,3,2,2,-5
2025-05-18 16:47:34.588,2,-11,-4,-4,-2,0,5,-2
2025-05-18 16:47:34.600,2,-11,-4,-4,-2,0,5,-2
2025-05-18 16:47:34.613,-2,17,9,-5,-4,-4,0,-6
2025-05-18 16:47:34.623,-2,17,9,-5,-4,-4,0,-6
2025-05-18 16:48:01.412,0,0,-1,-2,-2,-1,1,-4
2025-05-18 16:48:01.422,9,2,0,0,3,-1,2,2
2025-05-18 16:48:01.433,9,2,0,0,3,-1,2,2
2025-05-18 16:48:01.443,-1,6,1,-2,-3,-1,0,2
2025-05-18 16:48:01.455,-1,6,1,-2,-3,-1,0,2
2025-05-18 16:48:01.466,-14,-40,-7,-4,-2,0,-2,-5
2025-05-18 16:48:01.476,-14,-40,-7,-4,-2,0,-2,-5
2025-05-18 16:48:01.488,0,-9,-16,5,8,1,1,-2
2025-05-18 16:48:01.497,3,12,-3,-1,-2,-2,-2,0
2025-05-18 16:48:01.507,8,52,9,-1,-3,-1,2,-1
2025-05-18 16:48:01.518,8,52,9,-1,-3,-1,2,-1
2025-05-18 16:48:01.528,5,-7,1,0,-2,1,1,0
2025-05-18 16:48:01.538,5,-7,1,0,-2,1,1,0
2025-05-18 16:48:01.549,-9,-5,-1,-1,4,-1,6,-4
2025-05-18 16:48:01.560,-21,-61,-10,-2,-2,1,-1,-8
2025-05-18 16:48:01.570,-21,-61,-10,-2,-2,1,-1,-8
2025-05-18 16:48:01.582,10,58,0,-4,-3,-3,-1,-3
2025-05-18 16:48:01.594,10,58,0,-4,-3,-3,-1,-3
2025-05-18 16:48:01.605,13,14,15,-1,2,3,3,7
2025-05-18 16:48:01.617,13,14,15,-1,2,3,3,7
2025-05-18 16:48:01.626,-15,-15,-2,1,1,0,1,-6
2025-05-18 16:48:01.638,-15,-15,-2,1,1,0,1,-6
2025-05-18 16:48:01.649,-12,7,4,-2,-4,-1,-1,-6
2025-05-18 16:48:01.660,-12,7,4,-2,-4,-1,-1,-6
2025-05-18 16:48:01.670,-24,-39,-9,-5,-4,-2,-3,-2
2025-05-18 16:48:01.680,-15,-21,-6,-3,-6,0,1,-12
2025-05-18 16:48:01.692,-15,-21,-6,-3,-6,0,1,-12
2025-05-18 16:48:01.705,19,8,-6,1,0,1,4,11
2025-05-18 16:48:01.715,19,8,-6,1,0,1,4,11
2025-05-18 16:48:01.725,3,7,-7,-2,-2,0,0,-2
2025-05-18 16:48:01.738,-18,-24,-3,-1,-1,-2,-3,-9
2025-05-18 16:48:01.749,22,58,12,0,-3,-3,3,38
2025-05-18 16:48:01.759,22,58,12,0,-3,-3,3,38
2025-05-18 16:48:01.769,-4,-11,-7,-6,-4,-5,-20,-4
2025-05-18 16:48:01.779,-4,-11,-7,-6,-4,-5,-20,-4
2025-05-18 16:48:01.789,-7,-3,3,1,-1,0,0,-14
2025-05-18 16:48:01.801,-36,-34,-5,-2,0,-2,1,-12
2025-05-18 16:48:01.812,-36,-34,-5,-2,0,-2,1,-12
2025-05-18 16:48:01.823,5,16,7,1,4,2,7,-4
2025-05-18 16:48:01.835,5,16,7,1,4,2,7,-4
2025-05-18 16:48:01.844,3,14,-3,3,3,2,4,-16
2025-05-18 16:48:01.856,3,14,-3,3,3,2,4,-16
2025-05-18 16:48:01.866,-2,-1,2,-4,3,23,8,3
2025-05-18 16:48:01.878,-2,-1,2,-4,3,23,8,3
2025-05-18 16:48:01.889,-2,19,6,2,-2,-8,-3,1
2025-05-18 16:48:01.900,-2,19,6,2,-2,-8,-3,1
2025-05-18 16:48:01.910,29,21,-1,1,3,31,9,11
2025-05-18 16:48:01.921,2,17,2,-1,-3,-14,-3,-21
2025-05-18 16:48:01.932,2,17,2,-1,-3,-14,-3,-21
2025-05-18 16:48:01.944,-19,-63,-6,-2,2,-2,0,4
2025-05-18 16:48:01.955,-19,-63,-6,-2,2,-2,0,4
2025-05-18 16:48:01.966,19,-11,0,-5,-7,-30,-3,0
2025-05-18 16:48:01.975,19,-11,0,-5,-7,-30,-3,0
2025-05-18 16:48:01.988,-10,-47,-24,6,2,0,1,0
2025-05-18 16:48:01.998,-10,-47,-24,6,2,0,1,0
2025-05-18 16:48:02.010,-17,3,3,-4,-3,-6,1,31
2025-05-18 16:48:02.022,-17,3,3,-4,-3,-6,1,31
2025-05-18 16:48:02.033,7,31,10,-8,-1,50,3,5
2025-05-18 16:48:02.043,7,31,10,-8,-1,50,3,5
2025-05-18 16:48:02.053,9,18,-10,12,8,-8,-2,-4
2025-05-18 16:48:02.065,30,38,19,-2,-2,-8,0,-3
2025-05-18 16:48:02.075,30,38,19,-2,-2,-8,0,-3
2025-05-18 16:48:02.085,20,10,19,-1,1,-13,-3,2
2025-05-18 16:48:02.097,20,10,19,-1,1,-13,-3,2
2025-05-18 16:48:02.107,-13,32,3,-1,-5,6,1,-10
2025-05-18 16:48:02.117,-13,32,3,-1,-5,6,1,-10
2025-05-18 16:48:02.128,5,-27,-3,-1,0,-2,-7,-11
2025-05-18 16:48:02.141,5,-27,-3,-1,0,-2,-7,-11
2025-05-18 16:48:02.152,-20,-54,-12,-6,-2,9,-12,1
2025-05-18 16:48:02.163,-28,-57,-3,-4,-2,-17,0,38
2025-05-18 16:48:02.174,31,45,24,-2,4,9,4,6
2025-05-18 16:48:02.185,4,37,-2,-3,-2,-14,0,-3
2025-05-18 16:48:02.198,4,37,-2,-3,-2,-14,0,-3
2025-05-18 16:48:02.210,-8,8,-1,-1,0,15,4,-14
2025-05-18 16:48:02.222,-6,9,3,-3,-1,10,2,-10
2025-05-18 16:48:02.233,-4,14,-6,-5,0,20,8,4
2025-05-18 16:48:02.244,6,-1,-14,-5,-1,-10,28,1
2025-05-18 16:48:02.254,6,-1,-14,-5,-1,-10,28,1
2025-05-18 16:48:02.266,-24,-38,-5,1,-1,-14,-5,5
2025-05-18 16:48:02.277,-24,-38,-5,1,-1,-14,-5,5
2025-05-18 16:48:02.287,10,16,23,7,-1,-19,-11,-15
2025-05-18 16:48:02.298,10,16,23,7,-1,-19,-11,-15
2025-05-18 16:48:02.309,-18,-24,-3,-4,-2,-12,-6,-7
2025-05-18 16:48:02.320,-18,-24,-3,-4,-2,-12,-6,-7
2025-05-18 16:48:02.331,-3,30,3,5,-2,-23,-7,7
2025-05-18 16:48:02.342,1,-33,-1,-1,1,18,3,19
2025-05-18 16:48:02.354,17,26,4,-1,-5,-4,-7,15
2025-05-18 16:48:02.365,4,24,3,2,1,1,-4,3
2025-05-18 16:48:02.377,4,24,3,2,1,1,-4,3
2025-05-18 16:48:02.389,21,0,0,6,7,19,15,12
2025-05-18 16:48:02.400,30,81,18,15,5,-2,3,4
2025-05-18 16:48:02.410,-21,-64,-11,-9,-6,2,-6,-8
2025-05-18 16:48:02.424,3,2,-6,1,3,-6,-2,-10
2025-05-18 16:48:02.436,3,2,-6,1,3,-6,-2,-10
2025-05-18 16:48:02.447,20,-3,-3,2,-2,-28,-9,4
2025-05-18 16:48:02.458,20,-3,-3,2,-2,-28,-9,4
2025-05-18 16:48:02.469,12,18,3,-4,0,29,2,1
2025-05-18 16:48:02.481,-62,-23,-9,-2,4,19,-3,-6
2025-05-18 16:48:02.491,-62,-23,-9,-2,4,19,-3,-6
2025-05-18 16:48:02.502,-62,-23,-9,-2,4,19,-3,-6
2025-05-18 16:48:02.514,-15,-58,-10,-3,-3,-22,-8,-2
2025-05-18 16:48:02.525,-2,-11,-5,-9,-3,-7,-2,4
2025-05-18 16:48:02.537,-1,2,9,-2,-1,-7,0,-5
2025-05-18 16:48:02.547,7,-29,-3,4,-1,-6,-2,8
2025-05-18 16:48:02.559,7,-29,-3,4,-1,-6,-2,8
2025-05-18 16:48:02.571,17,57,14,0,-6,-21,-10,-10
2025-05-18 16:48:02.582,17,57,14,0,-6,-21,-10,-10
2025-05-18 16:48:02.593,-2,-34,-9,-6,-1,14,-5,-10
2025-05-18 16:48:02.604,-30,-6,-4,-8,-4,-4,5,0
2025-05-18 16:48:02.614,-30,-6,-4,-8,-4,-4,5,0
2025-05-18 16:48:02.625,18,-15,-4,-4,-5,2,-3,-2
2025-05-18 16:48:02.634,18,-15,-4,-4,-5,2,-3,-2
2025-05-18 16:48:02.645,-16,-36,-19,-1,-2,8,-4,-16
2025-05-18 16:48:02.656,40,32,3,2,1,-6,1,9
2025-05-18 16:48:02.667,-12,-42,-4,0,-3,-8,-8,-6
2025-05-18 16:48:02.678,-12,-42,-4,0,-3,-8,-8,-6
2025-05-18 16:48:02.688,3,35,6,5,3,10,-4,4
2025-05-18 16:48:02.698,3,35,6,5,3,10,-4,4
2025-05-18 16:48:02.708,19,30,5,3,2,-5,-3,16
2025-05-18 16:48:02.718,19,30,5,3,2,-5,-3,16
2025-05-18 16:48:02.730,-7,-26,-1,0,-3,-12,-6,-1
2025-05-18 16:48:02.742,-7,-26,-1,0,-3,-12,-6,-1
2025-05-18 16:48:02.752,-3,-4,-8,-7,2,7,-3,-10
2025-05-18 16:48:02.763,-3,-4,-8,-7,2,7,-3,-10
2025-05-18 16:48:02.776,-17,-29,-2,-5,-2,-4,-5,-3
2025-05-18 16:48:02.786,-23,-51,-9,5,0,9,-3,-14
2025-05-18 16:48:02.798,-23,-51,-9,5,0,9,-3,-14
2025-05-18 16:48:02.809,18,25,9,8,7,24,9,7
2025-05-18 16:48:02.820,18,25,9,8,7,24,9,7
2025-05-18 16:48:02.831,39,53,13,-8,-5,16,0,12
2025-05-18 16:48:02.841,7,3,-2,1,-1,-17,-2,4
2025-05-18 16:48:02.853,7,3,-2,1,-1,-17,-2,4
2025-05-18 16:48:02.863,-8,-24,-13,-5,3,9,-1,-2
2025-05-18 16:48:02.873,-6,1,7,1,1,-14,-6,2
2025-05-18 16:48:02.885,-6,1,7,1,1,-14,-6,2
2025-05-18 16:48:02.895,1,26,-1,2,0,-1,3,3
2025-05-18 16:48:02.906,0,-38,-3,2,2,35,4,11
2025-05-18 16:48:02.917,0,-38,-3,2,2,35,4,11
2025-05-18 16:48:02.928,-13,-13,1,-7,-5,-15,9,1
2025-05-18 16:48:02.938,-13,-13,1,-7,-5,-15,9,1
2025-05-18 16:48:02.948,9,-9,-11,-9,-5,-6,-11,-7
2025-05-18 16:48:02.958,9,-9,-11,-9,-5,-6,-11,-7
2025-05-18 16:48:02.969,25,-44,-3,1,0,7,1,40
2025-05-18 16:48:02.980,25,-44,-3,1,0,7,1,40
2025-05-18 16:48:02.990,2,5,5,4,3,-9,-9,7
2025-05-18 16:48:03.001,2,5,5,4,3,-9,-9,7
2025-05-18 16:48:03.012,-16,38,2,1,1,-13,-6,-14
2025-05-18 16:48:03.022,13,31,7,5,-1,-2,4,6
2025-05-18 16:48:03.033,4,28,-5,-2,-2,-5,17,0
2025-05-18 16:48:03.046,2,0,0,2,-2,-10,-17,0
2025-05-18 16:48:03.056,2,0,0,2,-2,-10,-17,0
2025-05-18 16:48:03.067,-9,-52,-4,-3,3,6,-12,-8
2025-05-18 16:48:03.078,-9,-52,-4,-3,3,6,-12,-8
2025-05-18 16:48:03.088,-28,-94,-14,-5,-5,-8,-10,-3
2025-05-18 16:48:03.099,-28,-94,-14,-5,-5,-8,-10,-3
2025-05-18 16:48:03.109,34,19,8,2,2,11,1,-1
2025-05-18 16:48:03.120,34,19,8,2,2,11,1,-1
2025-05-18 16:48:03.132,14,56,9,6,4,37,0,4
2025-05-18 16:48:03.142,-5,-3,5,1,2,6,7,-17
2025-05-18 16:48:03.154,18,38,-3,1,3,-12,-6,-4
2025-05-18 16:48:03.165,6,8,-3,-1,-3,-10,-5,2
2025-05-18 16:48:03.178,6,8,-3,-1,-3,-10,-5,2
2025-05-18 16:48:03.188,-13,-38,-5,1,-1,-9,-5,-2
2025-05-18 16:48:03.200,-12,49,-6,-10,-3,25,2,-13
2025-05-18 16:48:03.211,-18,-3,-6,1,1,-1,-5,4
2025-05-18 16:48:03.221,-18,-3,-6,1,1,-1,-5,4
2025-05-18 16:48:03.233,-32,-21,4,-1,-2,-9,-7,-7
2025-05-18 16:48:03.245,-32,-21,4,-1,-2,-9,-7,-7
2025-05-18 16:48:03.255,-9,1,6,-9,-5,9,-5,7
2025-05-18 16:48:03.266,-13,-44,-10,-4,0,-4,6,-4
2025-05-18 16:48:03.277,18,28,10,0,-2,-9,-2,3
2025-05-18 16:48:03.287,7,2,2,0,-2,-2,-6,-9
2025-05-18 16:48:03.299,7,2,2,0,-2,-2,-6,-9
2025-05-18 16:48:03.310,8,-25,-9,3,-4,-3,-6,5
2025-05-18 16:48:03.321,-33,-23,-5,-3,-3,-2,4,21
2025-05-18 16:48:03.332,-6,-32,-10,-3,-3,-7,-10,-14
2025-05-18 16:48:03.344,1,-70,-4,-4,-1,18,1,-3
2025-05-18 16:48:03.355,1,-70,-4,-4,-1,18,1,-3
2025-05-18 16:48:03.365,3,38,0,1,2,7,6,-7
2025-05-18 16:48:03.376,30,39,9,0,-1,-4,2,15
2025-05-18 16:48:03.387,7,12,1,5,6,3,4,-4
2025-05-18 16:48:03.398,-16,-15,-20,-7,-6,-15,-9,1
2025-05-18 16:48:03.409,-13,-6,-5,4,2,0,-3,-3
2025-05-18 16:48:03.420,-13,-6,-5,4,2,0,-3,-3
2025-05-18 16:48:03.431,6,-19,1,3,2,-4,-3,2
2025-05-18 16:48:03.441,6,-19,1,3,2,-4,-3,2
2025-05-18 16:48:03.452,6,-45,-1,3,5,10,-1,-8
2025-05-18 16:48:03.463,14,18,0,-5,-3,2,1,-12
2025-05-18 16:48:03.475,25,46,10,0,-3,-22,-5,4
2025-05-18 16:48:03.486,12,51,13,-5,-6,0,-2,-17
2025-05-18 16:48:03.498,17,43,13,3,-2,-21,-11,15
2025-05-18 16:48:03.508,17,43,13,3,-2,-21,-11,15
2025-05-18 16:48:03.518,-12,-41,2,3,2,8,-8,-6
2025-05-18 16:48:03.529,5,22,8,6,4,-7,0,29
2025-05-18 16:48:03.540,5,22,8,6,4,-7,0,29
2025-05-18 16:48:03.550,-12,6,-1,1,1,11,4,10
2025-05-18 16:48:03.560,-12,6,-1,1,1,11,4,10
2025-05-18 16:48:03.570,-9,-9,-6,0,1,-6,-3,-6
2025-05-18 16:48:03.581,-9,-9,-6,0,1,-6,-3,-6
2025-05-18 16:48:03.591,-5,-42,-12,4,1,-2,-2,-10
2025-05-18 16:48:03.601,-5,-42,-12,4,1,-2,-2,-10
2025-05-18 16:48:03.613,51,54,8,4,5,1,-7,-27
2025-05-18 16:48:03.623,51,54,8,4,5,1,-7,-27
2025-05-18 16:48:03.635,-1,-5,-1,-4,-5,-11,-12,3
2025-05-18 16:48:03.646,-27,-64,-22,-6,-4,-21,-6,-11
2025-05-18 16:48:03.656,2,7,-1,0,-2,20,6,5
2025-05-18 16:48:03.668,-11,27,-11,0,-3,12,-5,-5
2025-05-18 16:48:03.680,-11,27,-11,0,-3,12,-5,-5
2025-05-18 16:48:03.691,-11,27,-11,0,-3,12,-5,-5
2025-05-18 16:48:03.701,-4,-65,-10,-3,-1,-12,-3,-5
2025-05-18 16:48:03.712,-19,32,3,-2,-7,14,-1,-6
2025-05-18 16:48:03.723,-19,32,3,-2,-7,14,-1,-6
2025-05-18 16:48:03.734,12,34,1,1,0,-8,-4,5
2025-05-18 16:48:03.744,12,34,1,1,0,-8,-4,5
2025-05-18 16:48:03.754,7,0,-1,-3,-1,-1,0,17
2025-05-18 16:48:03.765,-11,-2,-3,-3,0,10,2,-3
2025-05-18 16:48:03.777,-16,-16,5,1,0,-6,-6,1
2025-05-18 16:48:03.787,12,2,2,1,4,-1,3,7
2025-05-18 16:48:03.798,12,2,2,1,4,-1,3,7
2025-05-18 16:48:03.809,-5,-45,-5,-1,1,5,3,-5
2025-05-18 16:48:03.819,-1,-3,2,3,-2,-10,-8,-4
2025-05-18 16:48:03.829,4,-14,-8,-2,-5,1,-3,-8
2025-05-18 16:48:03.840,4,-14,-8,-2,-5,1,-3,-8
2025-05-18 16:48:03.851,-27,-70,-12,-8,-8,1,-5,-1
2025-05-18 16:48:03.863,-27,-70,-12,-8,-8,1,-5,-1
2025-05-18 16:48:03.874,-15,-53,-7,0,0,1,-3,1
2025-05-18 16:48:03.885,2,-11,-9,-1,2,2,3,-11
2025-05-18 16:48:03.895,7,-13,-4,-1,-2,1,-3,-2
2025-05-18 16:48:03.905,-14,-13,-6,1,-1,1,1,-4
2025-05-18 16:48:03.916,15,62,6,6,9,14,-2,7
2025-05-18 16:48:03.927,15,62,6,6,9,14,-2,7
2025-05-18 16:48:03.937,-1,-5,3,-6,-4,-9,-5,-6
2025-05-18 16:48:03.948,14,1,-9,-3,0,-1,-1,-4
2025-05-18 16:48:03.960,-2,-54,-18,-1,0,-2,-3,2
2025-05-18 16:48:03.971,20,75,12,1,-1,-3,-5,-9
2025-05-18 16:48:03.981,20,75,12,1,-1,-3,-5,-9
2025-05-18 16:48:03.993,18,14,4,-3,-1,-5,4,11
2025-05-18 16:48:04.005,8,31,8,0,-1,-11,-3,-6
2025-05-18 16:48:04.016,20,15,3,6,0,-16,-21,1
2025-05-18 16:48:04.026,16,16,4,4,4,-2,-2,18
2025-05-18 16:48:04.038,16,16,4,4,4,-2,-2,18
2025-05-18 16:48:04.050,7,-1,7,1,1,4,0,-3
2025-05-18 16:48:04.061,7,-1,7,1,1,4,0,-3
2025-05-18 16:48:04.072,-15,-27,-10,-4,-3,-2,2,-4
2025-05-18 16:48:04.083,-15,-27,-10,-4,-3,-2,2,-4
2025-05-18 16:48:04.094,27,30,8,-2,-1,15,1,-9
2025-05-18 16:48:04.105,27,30,8,-2,-1,15,1,-9
2025-05-18 16:48:04.116,-17,-8,0,1,0,-19,-4,-7
2025-05-18 16:48:04.128,7,3,-1,1,3,9,10,2
2025-05-18 16:48:04.139,-15,-44,-13,-3,-1,-7,-2,3
2025-05-18 16:48:04.149,32,5,-2,-10,-8,3,-7,-17
2025-05-18 16:48:04.161,32,5,-2,-10,-8,3,-7,-17
2025-05-18 16:48:04.172,-6,-10,1,-2,0,1,-5,9
2025-05-18 16:48:04.182,-28,-70,-10,-6,-2,-2,-3,-18
2025-05-18 16:48:04.193,-45,-91,-14,2,-2,-3,-3,9
2025-05-18 16:48:04.205,-45,-91,-14,2,-2,-3,-3,9
2025-05-18 16:48:04.215,-5,29,3,3,1,9,-1,11
2025-05-18 16:48:04.226,-5,29,3,3,1,9,-1,11
2025-05-18 16:48:04.239,-2,32,22,6,5,0,8,10
2025-05-18 16:48:04.249,26,41,17,4,6,5,6,7
2025-05-18 16:48:04.258,-1,-45,-11,-2,-3,-2,-3,-3
2025-05-18 16:48:04.268,-10,-10,4,2,0,-3,-1,0
2025-05-18 16:48:04.281,-10,-10,4,2,0,-3,-1,0
2025-05-18 16:48:04.292,4,9,2,1,3,-7,-3,4
2025-05-18 16:48:04.301,-6,-1,-10,-1,0,-1,3,0
2025-05-18 16:48:04.314,23,25,-9,-2,-8,-19,-13,-32
2025-05-18 16:48:04.324,23,25,-9,-2,-8,-19,-13,-32
2025-05-18 16:48:04.336,6,3,-3,-1,0,2,-17,9
2025-05-18 16:48:04.346,6,3,-3,-1,0,2,-17,9
2025-05-18 16:48:04.357,3,-1,-1,1,5,8,-4,1
2025-05-18 16:48:04.367,3,-1,-1,1,5,8,-4,1
2025-05-18 16:48:04.378,0,-13,3,9,1,4,2,6
2025-05-18 16:48:04.388,-35,-36,1,2,-1,0,2,-1
2025-05-18 16:48:04.399,-35,-36,1,2,-1,0,2,-1
2025-05-18 16:48:04.410,-15,-34,-3,-5,-4,-15,-4,3
2025-05-18 16:48:04.422,-15,-34,-3,-5,-4,-15,-4,3
2025-05-18 16:48:04.434,37,49,-1,-2,-5,-7,-9,-12
2025-05-18 16:48:04.445,37,49,-1,-2,-5,-7,-9,-12
2025-05-18 16:48:04.454,9,43,-2,-8,-3,4,10,2
2025-05-18 16:48:04.465,9,43,-2,-8,-3,4,10,2
2025-05-18 16:48:04.477,10,15,3,3,5,9,6,14
2025-05-18 16:48:04.486,10,15,3,3,5,9,6,14
2025-05-18 16:48:04.497,-1,2,7,-2,-11,-6,-7,-1
2025-05-18 16:48:04.507,-18,-26,-5,-3,-1,-8,-5,-1
2025-05-18 16:48:04.518,7,0,0,2,-1,1,0,3
2025-05-18 16:48:04.530,23,8,1,-2,0,8,-4,7
2025-05-18 16:48:04.541,23,8,1,-2,0,8,-4,7
2025-05-18 16:48:04.552,-5,7,-7,-6,-7,-8,-8,-2
2025-05-18 16:48:04.563,-5,7,-7,-6,-7,-8,-8,-2
2025-05-18 16:48:04.574,10,10,3,4,0,3,-4,-9
2025-05-18 16:48:04.585,10,10,3,4,0,3,-4,-9
2025-05-18 16:48:04.598,-12,-20,-2,2,2,-1,3,12
2025-05-18 16:48:04.607,-12,-20,-2,2,2,-1,3,12
2025-05-18 16:48:04.619,-10,-44,-6,-2,-1,-3,-9,-2
2025-05-18 16:48:04.630,4,8,8,-1,0,5,4,1
2025-05-18 16:48:04.640,6,30,-3,0,3,0,-3,-3
2025-05-18 16:48:04.651,6,16,-3,5,5,0,-2,13
2025-05-18 16:48:04.662,6,16,-3,5,5,0,-2,13
2025-05-18 16:48:04.673,-20,-49,-15,-5,-6,0,0,-5
2025-05-18 16:48:04.684,-4,9,-2,0,-1,9,-2,-9
2025-05-18 16:48:04.697,-1,-1,8,2,0,-1,-6,-5
2025-05-18 16:48:04.708,-1,-1,8,2,0,-1,-6,-5
2025-05-18 16:48:04.718,6,7,-2,2,-2,-2,-4,-4
2025-05-18 16:48:04.729,6,7,-2,2,-2,-2,-4,-4
2025-05-18 16:48:04.739,-2,-22,-3,-1,-1,-2,-4,-9
2025-05-18 16:48:04.750,7,8,5,2,4,11,25,6
2025-05-18 16:48:04.760,-13,-26,-7,0,-4,-19,-8,-8
2025-05-18 16:48:04.772,2,26,1,-2,0,-1,-6,-6
2025-05-18 16:48:04.782,2,26,1,-2,0,-1,-6,-6
2025-05-18 16:48:04.792,21,15,13,-1,1,0,-3,11
2025-05-18 16:48:04.804,21,15,13,-1,1,0,-3,11
2025-05-18 16:48:04.814,19,-13,5,2,3,5,1,3
2025-05-18 16:48:04.825,19,-13,5,2,3,5,1,3
2025-05-18 16:48:04.836,-22,24,-3,-3,-2,-3,-13,2
2025-05-18 16:48:04.846,-22,24,-3,-3,-2,-3,-13,2
2025-05-18 16:48:04.857,1,10,-5,0,5,21,-4,2
2025-05-18 16:48:04.868,27,19,1,-1,-2,-6,0,9
2025-05-18 16:48:04.878,-14,-16,-6,-2,-5,-12,-1,-9
2025-05-18 16:48:04.889,-6,-19,-17,-3,-3,-2,1,-1
2025-05-18 16:48:04.901,-6,-19,-17,-3,-3,-2,1,-1
2025-05-18 16:48:04.911,-1,-14,4,-1,-2,-3,-1,-12
2025-05-18 16:48:04.922,-1,-14,4,-1,-2,-3,-1,-12
2025-05-18 16:48:04.934,5,2,2,2,3,-2,4,12
2025-05-18 16:48:04.945,5,2,2,2,3,-2,4,12
2025-05-18 16:48:04.956,-14,-34,-6,-3,-4,-7,10,-3
2025-05-18 16:48:04.967,-14,-34,-6,-3,-4,-7,10,-3
2025-05-18 16:48:04.978,25,19,3,3,0,-1,-5,15
2025-05-18 16:48:04.988,7,42,2,1,1,1,3,2
2025-05-18 16:48:04.999,3,22,19,-5,-6,-2,-4,-2
2025-05-18 16:48:05.011,-4,11,-6,-3,0,1,1,-6
2025-05-18 16:48:05.022,-4,11,-6,-3,0,1,1,-6
2025-05-18 16:48:05.033,16,-13,-2,1,-2,-4,-4,3
2025-05-18 16:48:05.044,-14,-4,-7,-1,-2,1,3,4
2025-05-18 16:48:05.054,-12,-39,-13,-6,-4,-2,-4,-8
2025-05-18 16:48:05.065,-12,-39,-13,-6,-4,-2,-4,-8
2025-05-18 16:48:05.075,1,-1,-4,3,4,3,-2,-2
2025-05-18 16:48:05.085,1,-1,-4,3,4,3,-2,-2
2025-05-18 16:48:05.097,3,27,4,4,4,-2,-2,6
2025-05-18 16:48:05.109,20,28,21,0,-2,-2,3,5
2025-05-18 16:48:05.118,-10,-8,-15,1,1,13,4,-3
2025-05-18 16:48:05.130,-16,7,3,-1,-4,-5,-8,-6
2025-05-18 16:48:05.141,-16,7,3,-1,-4,-5,-8,-6
2025-05-18 16:48:05.152,2,16,7,2,-5,-11,-1,2
2025-05-18 16:48:05.163,-7,-8,0,-3,0,-4,1,-4
2025-05-18 16:48:05.175,0,9,-1,-3,0,3,-1,0
2025-05-18 16:48:05.185,0,9,-1,-3,0,3,-1,0
2025-05-18 16:48:05.195,18,42,11,-1,-2,-2,2,9
2025-05-18 16:48:05.207,18,42,11,-1,-2,-2,2,9
2025-05-18 16:48:05.217,-15,-34,-2,-2,3,6,19,0
2025-05-18 16:48:05.228,-14,15,7,-5,-5,0,0,-5
2025-05-18 16:48:05.239,-17,-20,-9,2,-3,-3,-5,-13
2025-05-18 16:48:05.250,-3,-14,0,-4,-1,-22,-7,-1
2025-05-18 16:48:05.260,-3,-14,0,-4,-1,-22,-7,-1
2025-05-18 16:48:05.271,4,-10,-8,-2,-4,-3,-6,-5
2025-05-18 16:48:05.282,4,-10,-8,-2,-4,-3,-6,-5
2025-05-18 16:48:05.292,-1,-6,-5,-2,-1,0,-3,-7
2025-05-18 16:48:05.303,-13,-14,-8,-6,-2,-3,-11,-1
2025-05-18 16:48:05.314,-8,-3,-3,2,-2,-13,-3,6
2025-05-18 16:48:05.325,-8,-3,-3,2,-2,-13,-3,6
2025-05-18 16:48:05.337,22,13,9,-3,1,7,-5,-1
2025-05-18 16:48:05.347,22,13,9,-3,1,7,-5,-1
2025-05-18 16:48:05.359,-19,-17,-8,-2,-3,0,4,-13
2025-05-18 16:48:05.370,-18,26,5,-6,-4,-5,-7,-3
2025-05-18 16:48:05.380,25,32,-2,2,-7,0,-1,-11
2025-05-18 16:48:05.391,-1,-33,3,1,2,10,30,6
2025-05-18 16:48:05.402,-2,-6,0,0,-3,1,-2,-2
2025-05-18 16:48:05.413,6,16,5,-3,-2,-2,-13,-9
2025-05-18 16:48:05.425,-3,4,4,2,0,2,2,6
2025-05-18 16:48:05.438,18,20,5,5,4,0,-5,5
2025-05-18 16:48:05.447,18,20,5,5,4,0,-5,5
2025-05-18 16:48:05.460,-2,12,-6,-1,2,1,-1,1
2025-05-18 16:48:05.471,-2,12,-6,-1,2,1,-1,1
2025-05-18 16:48:05.482,-13,-5,-3,-2,-3,-4,0,3
2025-05-18 16:48:05.492,-11,-26,-5,-1,-4,-5,-10,-3
2025-05-18 16:48:05.503,17,0,4,2,2,-1,1,6
2025-05-18 16:48:05.513,-16,-7,-17,-14,-10,-4,-1,-10
2025-05-18 16:48:05.524,-16,-7,-17,-14,-10,-4,-1,-10
2025-05-18 16:48:05.536,-20,-2,3,0,-3,12,-3,-9
2025-05-18 16:48:05.546,-20,-2,3,0,-3,12,-3,-9
2025-05-18 16:48:05.557,-11,-31,-12,-8,-4,-5,-4,-10
2025-05-18 16:48:05.568,-11,-31,-12,-8,-4,-5,-4,-10
2025-05-18 16:48:05.579,31,18,9,2,-2,-3,3,-2
2025-05-18 16:48:05.588,31,18,9,2,-2,-3,3,-2
2025-05-18 16:48:05.601,-16,-5,-6,1,2,1,-5,-4
2025-05-18 16:48:05.612,6,14,-2,-2,-1,6,2,-1
2025-05-18 16:48:05.622,-8,-4,0,0,5,-4,0,-1
2025-05-18 16:48:05.634,-15,22,6,-5,-3,1,5,24
2025-05-18 16:48:05.646,-15,22,6,-5,-3,1,5,24
2025-05-18 16:48:05.658,-7,-39,-13,-3,-2,2,0,3
2025-05-18 16:48:05.670,-9,-22,1,3,0,-16,2,1
2025-05-18 16:48:05.681,-17,-4,0,-3,-1,11,-1,-3
2025-05-18 16:48:05.691,-13,0,-2,-1,1,3,1,-3
2025-05-18 16:48:05.702,2,19,1,-1,-3,-4,0,-3
2025-05-18 16:48:05.712,2,19,1,-1,-3,-4,0,-3
2025-05-18 16:48:05.724,-3,0,5,1,1,0,1,-8
2025-05-18 16:48:05.736,-11,10,-9,-3,-5,-9,-6,-41
2025-05-18 16:48:05.746,-11,10,-9,-3,-5,-9,-6,-41
2025-05-18 16:48:05.756,-1,-15,-2,1,-1,-7,-15,-4
2025-05-18 16:48:05.767,-1,-15,-2,1,-1,-7,-15,-4
2025-05-18 16:48:05.778,3,-17,-12,-7,-6,13,-1,-4
2025-05-18 16:48:05.789,-1,53,5,-1,-5,-2,-8,15
2025-05-18 16:48:05.800,-12,6,-8,-3,-3,-4,3,7
2025-05-18 16:48:05.811,-4,25,-4,4,-2,-2,-2,-6
2025-05-18 16:48:05.822,-6,-25,-4,1,-1,-2,2,14
2025-05-18 16:48:05.833,-21,-12,-2,-3,-3,-1,-3,-6
2025-05-18 16:48:05.844,-7,-9,1,8,4,0,3,3
2025-05-18 16:48:05.855,7,-22,-5,2,-1,5,4,0
2025-05-18 16:48:05.865,34,36,11,-2,-2,3,-11,9
2025-05-18 16:48:05.876,-4,16,1,2,0,-7,2,-3
2025-05-18 16:48:05.886,-4,16,1,2,0,-7,2,-3
2025-05-18 16:48:05.898,14,13,0,-1,0,-4,5,3
2025-05-18 16:48:05.908,-10,-6,13,4,2,-1,-2,-12
2025-05-18 16:48:05.919,-23,-11,-9,-6,-4,26,11,-5
2025-05-18 16:48:05.930,-23,-11,-9,-6,-4,26,11,-5
2025-05-18 16:48:05.942,-21,8,-3,0,-3,-16,0,-16
2025-05-18 16:48:05.952,-21,8,-3,0,-3,-16,0,-16
2025-05-18 16:48:05.962,-10,-14,5,3,2,-4,32,14
2025-05-18 16:48:05.973,19,26,0,1,-1,-6,-2,53
2025-05-18 16:48:05.983,-19,-54,-18,-6,0,-3,-9,-7
2025-05-18 16:48:05.994,11,-7,-6,-9,-5,-8,-4,1
2025-05-18 16:48:06.004,11,-7,-6,-9,-5,-8,-4,1
2025-05-18 16:48:06.015,1,25,0,1,1,-4,-1,-10
2025-05-18 16:48:06.026,26,32,14,3,3,3,-2,4
2025-05-18 16:48:06.037,-20,27,4,1,-1,2,0,29
2025-05-18 16:48:06.048,-20,27,4,1,-1,2,0,29
2025-05-18 16:48:06.059,6,3,7,1,-3,-1,-4,-4
2025-05-18 16:48:06.068,6,3,7,1,-3,-1,-4,-4
2025-05-18 16:48:06.081,1,-3,-1,-1,0,-3,1,-10
2025-05-18 16:48:06.091,-14,-39,-2,2,-6,-7,-6,-6
2025-05-18 16:48:06.102,1,26,0,-6,-1,-2,3,-20
2025-05-18 16:48:06.114,9,-6,2,-1,-1,26,-14,-8
2025-05-18 16:48:06.125,9,-6,2,-1,-1,26,-14,-8
2025-05-18 16:48:06.137,6,-5,-5,2,0,-11,3,-2
2025-05-18 16:48:06.148,-21,-16,4,2,12,3,-3,-6
2025-05-18 16:48:06.160,-18,-8,5,-5,-3,-3,7,-6
2025-05-18 16:48:06.170,22,13,0,-5,-5,-4,1,21
2025-05-18 16:48:06.181,-26,-31,-4,-8,-1,-3,0,-7
2025-05-18 16:48:06.191,-26,-31,-4,-8,-1,-3,0,-7
2025-05-18 16:48:06.202,-1,10,-1,-1,-3,-7,-13,-5
2025-05-18 16:48:06.212,-1,10,-1,-1,-3,-7,-13,-5
2025-05-18 16:48:06.224,-7,-40,-9,-3,-7,-8,-6,-15
2025-05-18 16:48:06.234,8,42,9,2,-1,4,7,0
2025-05-18 16:48:06.244,8,42,9,2,-1,4,7,0
2025-05-18 16:48:06.256,1,15,-2,-3,-1,-6,6,11
2025-05-18 16:48:06.266,1,15,-2,-3,-1,-6,6,11
2025-05-18 16:48:06.276,4,-40,-3,1,0,-6,-7,-19
2025-05-18 16:48:06.287,2,17,-15,2,1,3,25,-14
2025-05-18 16:48:06.300,-14,-42,-4,-1,-1,-3,-1,-7
2025-05-18 16:48:06.311,-14,-42,-4,-1,-1,-3,-1,-7
2025-05-18 16:48:06.322,21,16,6,-2,1,-4,3,6
2025-05-18 16:48:06.334,21,16,6,-2,1,-4,3,6
2025-05-18 16:48:06.346,15,57,4,-1,1,0,4,5
2025-05-18 16:48:06.357,-25,47,-4,0,-3,0,-1,-8
2025-05-18 16:48:06.366,-25,47,-4,0,-3,0,-1,-8
2025-05-18 16:48:06.378,1,8,2,5,8,5,5,-4
2025-05-18 16:48:06.389,1,8,2,5,8,5,5,-4
2025-05-18 16:48:06.400,-9,-25,-2,-2,-6,-3,-1,0
2025-05-18 16:48:06.410,22,-34,3,2,-2,-2,-9,-13
2025-05-18 16:48:06.422,4,-1,-5,-9,-2,-3,2,4
2025-05-18 16:48:06.433,-1,-9,-1,-4,0,3,11,-4
2025-05-18 16:48:06.444,-1,-9,-1,-4,0,3,11,-4
2025-05-18 16:48:06.456,-6,-47,-12,-7,-5,-7,-7,8
2025-05-18 16:48:06.467,-12,-13,2,2,-1,0,0,-3
2025-05-18 16:48:06.477,-9,11,-1,-2,-2,-3,1,-4
2025-05-18 16:48:06.487,-9,11,-1,-2,-2,-3,1,-4
2025-05-18 16:48:06.497,2,28,-3,-3,-5,-5,2,-6
2025-05-18 16:48:06.507,2,28,-3,-3,-5,-5,2,-6
2025-05-18 16:48:06.519,-6,-21,3,-3,-3,2,-16,-9
2025-05-18 16:48:06.531,7,23,6,-1,-2,-5,-8,-2
2025-05-18 16:48:06.541,-8,-38,-15,-6,-4,-3,0,-7
2025-05-18 16:48:06.552,-8,-38,-15,-6,-4,-3,0,-7
2025-05-18 16:48:06.563,9,27,4,1,0,-1,4,2
2025-05-18 16:48:06.573,9,27,4,1,0,-1,4,2
2025-05-18 16:48:06.583,-20,5,0,2,1,3,6,-5
2025-05-18 16:48:06.596,32,63,11,0,3,-3,-20,4
2025-05-18 16:48:06.606,-4,-26,9,-1,2,-1,6,2
2025-05-18 16:48:06.617,2,10,7,3,-4,0,5,-3
2025-05-18 16:48:06.627,2,10,7,3,-4,0,5,-3
2025-05-18 16:48:06.640,12,16,-4,-1,-2,0,7,-6
2025-05-18 16:48:06.650,-25,4,-1,-4,-1,-2,1,1
2025-05-18 16:48:06.660,12,3,-11,-5,-3,-1,-1,-5
2025-05-18 16:48:06.672,12,3,-11,-5,-3,-1,-1,-5
2025-05-18 16:48:06.682,-26,-12,-10,-4,-2,-2,0,-9
2025-05-18 16:48:06.693,-26,-12,-10,-4,-2,-2,0,-9
2025-05-18 16:48:06.704,-22,-18,-12,-6,-2,0,5,-7
2025-05-18 16:48:06.714,6,-17,0,3,1,2,-3,21
2025-05-18 16:48:06.725,-16,15,6,1,0,-1,0,-2
2025-05-18 16:48:06.735,15,24,5,-4,0,-2,6,9
2025-05-18 16:48:06.747,15,24,5,-4,0,-2,6,9
2025-05-18 16:48:06.757,-2,-3,-1,4,2,5,0,-10
2025-05-18 16:48:06.768,-2,-13,5,3,2,0,-16,-6
2025-05-18 16:48:06.780,-13,-20,-10,-1,-4,0,2,3
2025-05-18 16:48:06.793,-3,19,6,2,2,-1,-1,-8
2025-05-18 16:48:06.805,-3,19,6,2,2,-1,-1,-8
2025-05-18 16:48:06.816,8,-2,7,1,1,-1,-5,2
2025-05-18 16:48:06.827,-3,-28,-8,-1,3,-1,3,2
2025-05-18 16:48:06.838,-13,9,1,0,-1,-5,9,-8
2025-05-18 16:48:06.849,-13,9,1,0,-1,-5,9,-8
2025-05-18 16:48:06.860,-8,-4,4,-3,-4,0,-3,-24
2025-05-18 16:48:06.871,-8,-4,4,-3,-4,0,-3,-24
2025-05-18 16:48:06.882,9,32,0,-4,-5,-2,2,2
2025-05-18 16:48:06.892,23,-16,8,3,3,4,-3,-4
2025-05-18 16:48:06.905,-19,-28,-1,-3,-3,-1,0,-2
2025-05-18 16:48:06.916,6,20,3,-5,-3,-1,3,1
2025-05-18 16:48:06.927,6,20,3,-5,-3,-1,3,1
2025-05-18 16:48:06.937,1,8,2,-2,-5,0,0,-2
2025-05-18 16:48:06.949,5,2,0,-1,-2,-1,0,44
2025-05-18 16:48:06.960,6,-9,1,-1,-1,-5,-1,3
2025-05-18 16:48:06.971,6,-9,1,-1,-1,-5,-1,3
2025-05-18 16:48:06.981,-22,-9,-7,-4,-4,-1,-10,1
2025-05-18 16:48:06.993,-22,-9,-7,-4,-4,-1,-10,1
2025-05-18 16:48:07.003,22,31,9,4,2,1,-2,3
2025-05-18 16:48:07.015,-22,-29,-15,-1,1,-2,-7,-12
2025-05-18 16:48:07.026,-7,7,7,3,5,4,8,-2
2025-05-18 16:48:07.037,-17,11,-4,-2,0,3,5,28
2025-05-18 16:48:07.049,-17,11,-4,-2,0,3,5,28
2025-05-18 16:48:07.060,-21,-23,-9,-6,-3,-1,4,-17
2025-05-18 16:48:07.072,-22,-1,5,-1,-2,0,1,-13
2025-05-18 16:48:07.082,-2,-11,-18,-4,-3,2,15,0
2025-05-18 16:48:07.092,-2,-11,-18,-4,-3,2,15,0
2025-05-18 16:48:07.102,9,26,8,5,2,1,3,-7
2025-05-18 16:48:07.113,9,26,8,5,2,1,3,-7
2025-05-18 16:48:07.123,22,-14,-12,-3,-2,0,1,-2
2025-05-18 16:48:07.133,-20,-25,-9,2,0,0,-5,0
2025-05-18 16:48:07.143,6,21,10,-3,-2,-4,-1,-15
2025-05-18 16:48:07.155,-4,13,-1,0,1,-4,4,2
2025-05-18 16:48:07.166,-4,13,-1,0,1,-4,4,2
2025-05-18 16:48:07.176,5,31,15,1,1,1,-1,4
2025-05-18 16:48:07.186,-6,-23,-13,-8,-6,-3,-4,-10
2025-05-18 16:48:07.197,-3,-40,-3,3,-1,-4,-6,-7
2025-05-18 16:48:07.208,11,19,-1,0,-1,-1,4,8
2025-05-18 16:48:07.218,-5,8,6,-1,-2,-4,-3,-2
2025-05-18 16:48:07.229,-5,8,6,-1,-2,-4,-3,-2
2025-05-18 16:48:07.240,-8,-7,0,0,0,-2,-1,-6
2025-05-18 16:48:07.250,-8,-7,0,0,0,-2,-1,-6
2025-05-18 16:48:07.261,7,-10,-9,0,0,3,4,2
2025-05-18 16:48:07.273,3,-66,-18,5,3,-1,-5,-12
2025-05-18 16:48:07.284,-7,4,-6,-3,-6,-4,-3,-22
2025-05-18 16:48:07.295,-8,-5,-3,-5,-5,-4,-8,1
2025-05-18 16:48:07.306,-37,-31,-7,-2,6,0,1,-11
2025-05-18 16:48:07.318,23,37,8,4,3,3,4,12
2025-05-18 16:48:07.329,-12,18,9,1,1,1,5,24
2025-05-18 16:48:07.341,2,10,4,3,0,0,10,8
2025-05-18 16:48:07.351,2,10,4,3,0,0,10,8
2025-05-18 16:48:07.362,-28,-22,-22,-8,-3,0,-1,-4
2025-05-18 16:48:07.373,-28,-22,-22,-8,-3,0,-1,-4
2025-05-18 16:48:07.384,9,-4,0,-4,-2,1,2,-3
2025-05-18 16:48:07.394,13,20,7,-2,-4,-1,-3,3
2025-05-18 16:48:07.405,11,11,8,-3,-4,-2,-3,-24
2025-05-18 16:48:07.416,-9,2,1,2,1,1,0,-10
2025-05-18 16:48:07.427,-9,2,1,2,1,1,0,-10
2025-05-18 16:48:07.438,-14,-22,-8,-4,-5,-3,-4,23
2025-05-18 16:48:07.450,12,21,0,5,1,-1,17,-3
2025-05-18 16:48:07.460,2,-4,-1,-3,-3,0,-7,-7
2025-05-18 16:48:07.470,2,-4,-1,-3,-3,0,-7,-7
2025-05-18 16:48:07.481,7,1,-1,-2,3,0,0,7
2025-05-18 16:48:07.492,7,1,-1,-2,3,0,0,7
2025-05-18 16:48:07.504,28,16,5,2,1,-4,8,-8
2025-05-18 16:48:07.516,18,13,3,1,-1,-3,-6,0
2025-05-18 16:48:07.526,24,35,3,-2,2,3,0,-12
2025-05-18 16:48:07.536,-14,29,3,-1,-5,-2,-3,9
2025-05-18 16:48:07.548,-14,29,3,-1,-5,-2,-3,9
2025-05-18 16:48:07.558,-13,-27,-19,1,-1,3,3,2
2025-05-18 16:48:07.570,-13,-27,-19,1,-1,3,3,2
2025-05-18 16:48:07.580,-8,-11,-5,-3,2,0,-1,-1
2025-05-18 16:48:07.592,-8,-11,-5,-3,2,0,-1,-1
2025-05-18 16:48:07.604,-16,-32,-6,-4,-3,-3,-3,-1
2025-05-18 16:48:07.614,-16,-32,-6,-4,-3,-3,-3,-1
2025-05-18 16:48:07.624,8,17,7,-2,-3,-4,-1,8
2025-05-18 16:48:07.636,11,-11,-21,4,0,-4,-5,8
2025-05-18 16:48:07.647,-18,6,1,-4,-4,-6,-1,-2
2025-05-18 16:48:07.657,10,-11,-3,-2,-1,0,-2,0
2025-05-18 16:48:07.669,10,-11,-3,-2,-1,0,-2,0
2025-05-18 16:48:07.680,-28,-36,6,-2,-1,-3,-2,-7
2025-05-18 16:48:07.690,-28,-36,6,-2,-1,-3,-2,-7
2025-05-18 16:48:07.700,-12,24,5,-6,-1,5,0,11
2025-05-18 16:48:07.712,-12,24,5,-6,-1,5,0,11
2025-05-18 16:48:07.722,14,11,9,-1,2,2,2,0
2025-05-18 16:48:07.733,14,11,9,-1,2,2,2,0
2025-05-18 16:48:07.745,-7,-41,-7,0,-2,0,1,-4
2025-05-18 16:48:07.755,15,22,2,2,4,-1,3,4
2025-05-18 16:48:07.765,-7,-12,-15,-7,-3,-3,1,-4
2025-05-18 16:48:07.777,-10,-13,-5,-6,1,4,18,-1
2025-05-18 16:48:07.788,-10,-13,-5,-6,1,4,18,-1
2025-05-18 16:48:07.799,-5,7,9,-2,-4,-8,1,14
2025-05-18 16:48:07.808,2,-20,-6,1,1,2,-2,-1
2025-05-18 16:48:07.819,19,4,-10,-1,-2,2,6,1
2025-05-18 16:48:07.830,24,39,0,1,-4,-2,3,-3
2025-05-18 16:48:07.841,34,18,5,1,0,3,1,9
2025-05-18 16:48:07.851,34,18,5,1,0,3,1,9
2025-05-18 16:48:07.861,14,35,14,4,2,-2,-2,-1
2025-05-18 16:48:07.873,9,-12,-9,3,3,5,0,4
2025-05-18 16:48:07.883,-13,-12,-2,0,2,3,0,0
2025-05-18 16:48:07.893,-13,-12,-2,0,2,3,0,0
2025-05-18 16:48:07.904,-9,21,-9,-2,-2,-2,-5,-2
2025-05-18 16:48:07.915,-9,21,-9,-2,-2,-2,-5,-2
2025-05-18 16:48:07.925,12,6,3,-1,1,0,0,2
2025-05-18 16:48:07.935,21,14,7,2,2,1,-3,2
2025-05-18 16:48:07.947,-22,-5,8,4,-1,-3,-6,2
2025-05-18 16:48:07.957,-7,-42,-4,-7,-1,0,1,-9
2025-05-18 16:48:07.968,-7,-42,-4,-7,-1,0,1,-9
2025-05-18 16:48:07.979,3,1,0,-2,-7,-5,-1,3
2025-05-18 16:48:07.989,-45,-1,0,1,-4,-2,-1,-5
2025-05-18 16:48:07.999,11,19,1,-2,1,-2,-5,-8
2025-05-18 16:48:08.009,27,37,8,0,1,0,5,7
2025-05-18 16:48:08.019,0,-6,-2,-4,-3,-2,-1,-6
2025-05-18 16:48:08.030,0,-6,-2,-4,-3,-2,-1,-6
2025-05-18 16:48:08.042,1,-1,-8,-4,-2,-5,-4,-14
2025-05-18 16:48:08.052,-5,8,13,2,4,-3,-6,0
2025-05-18 16:48:08.062,0,-25,-19,2,1,1,-1,-5
2025-05-18 16:48:08.073,0,-25,-19,2,1,1,-1,-5
2025-05-18 16:48:08.084,-2,-19,0,1,1,-1,0,4
2025-05-18 16:48:08.094,-2,-19,0,1,1,-1,0,4
2025-05-18 16:48:08.106,9,23,5,-2,1,3,23,11
2025-05-18 16:48:08.116,9,23,5,-2,1,3,23,11
2025-05-18 16:48:08.127,-6,-42,-5,-2,-5,-1,-6,-3
2025-05-18 16:48:08.137,-25,-25,-9,1,0,-1,-9,0
2025-05-18 16:48:08.150,-25,-25,-9,1,0,-1,-9,0
2025-05-18 16:48:08.160,20,17,7,2,-1,-3,-4,-3
2025-05-18 16:48:08.170,20,17,7,2,-1,-3,-4,-3
2025-05-18 16:48:08.181,-6,-21,-14,-5,-1,0,0,0
2025-05-18 16:48:08.192,-13,9,4,-2,3,-2,1,-3
2025-05-18 16:48:08.202,-24,-29,-3,-5,-4,2,-6,-9
2025-05-18 16:48:08.215,-24,-29,-3,-5,-4,2,-6,-9
2025-05-18 16:48:08.225,10,-19,-4,0,-1,-1,-5,3
2025-05-18 16:48:08.236,10,-19,-4,0,-1,-1,-5,3
2025-05-18 16:48:08.247,13,10,-8,-1,3,1,8,5
2025-05-18 16:48:08.258,-15,23,16,3,1,1,3,-3
2025-05-18 16:48:08.267,-15,23,16,3,1,1,3,-3
2025-05-18 16:48:08.278,6,-4,5,-1,0,-3,-5,2
2025-05-18 16:48:08.290,6,-4,5,-1,0,-3,-5,2
2025-05-18 16:48:08.303,-5,5,10,7,3,-1,1,28
2025-05-18 16:48:08.313,-5,5,10,7,3,-1,1,28
2025-05-18 16:48:08.324,-48,-46,-16,-5,-3,-4,-4,-10
2025-05-18 16:48:08.335,-48,-46,-16,-5,-3,-4,-4,-10
2025-05-18 16:48:08.346,20,4,-2,-4,-2,1,-3,-3
2025-05-18 16:48:08.357,20,4,-2,-4,-2,1,-3,-3
2025-05-18 16:48:08.368,18,26,-3,0,-1,0,0,-3
2025-05-18 16:48:08.378,3,4,1,3,3,1,0,2
2025-05-18 16:48:08.390,-6,-35,-4,2,2,-2,-1,18
2025-05-18 16:48:08.400,8,18,4,0,0,4,-1,-5
2025-05-18 16:48:08.410,8,18,4,0,0,4,-1,-5
2025-05-18 16:48:08.421,-8,12,-9,1,1,-2,0,6
2025-05-18 16:48:08.433,-3,-3,-5,-4,-1,1,-1,-5
2025-05-18 16:48:08.445,15,-26,-9,-2,2,2,0,-7
2025-05-18 16:48:08.455,15,-26,-9,-2,2,2,0,-7
2025-05-18 16:48:08.467,-14,22,2,-2,-1,0,2,-13
2025-05-18 16:48:08.476,-14,22,2,-2,-1,0,2,-13
2025-05-18 16:48:08.487,-8,20,0,-6,-3,-1,-4,-2
2025-05-18 16:48:08.497,29,8,-3,-2,0,-1,2,4
2025-05-18 16:48:08.509,8,17,10,0,-3,-2,2,18
2025-05-18 16:48:08.521,16,14,1,3,-1,-2,-2,3
2025-05-18 16:48:08.531,16,14,1,3,-1,-2,-2,3
2025-05-18 16:48:08.542,28,-4,1,-1,-3,-2,2,-7
2025-05-18 16:48:08.553,28,-4,1,-1,-3,-2,2,-7
2025-05-18 16:48:08.564,12,12,2,1,2,0,-3,2
2025-05-18 16:48:08.574,12,12,2,1,2,0,-3,2
2025-05-18 16:48:08.585,-5,-57,-7,3,1,-1,-3,-5
2025-05-18 16:48:08.596,-5,-57,-7,3,1,-1,-3,-5
2025-05-18 16:48:08.606,9,45,17,-1,0,-1,2,1
2025-05-18 16:48:08.618,0,12,-1,2,0,0,2,0
2025-05-18 16:48:08.628,1,-6,7,0,0,-3,-1,1
2025-05-18 16:48:08.639,-15,-4,-11,-6,-3,-3,1,5
2025-05-18 16:48:08.650,-5,16,-3,-5,-4,3,2,-10
2025-05-18 16:48:08.662,-14,9,-9,-5,3,-3,-5,5
2025-05-18 16:48:08.673,-14,9,-9,-5,3,-3,-5,5
2025-05-18 16:48:08.684,0,1,-7,-3,0,-2,-4,0
2025-05-18 16:48:08.696,0,1,-7,-3,0,-2,-4,0
2025-05-18 16:48:08.708,29,-13,5,3,0,4,1,-14
2025-05-18 16:48:08.718,29,-13,5,3,0,4,1,-14
2025-05-18 16:48:08.730,11,-7,-1,0,-4,-3,-6,6
2025-05-18 16:48:08.742,-29,5,0,-4,-4,-2,-4,-13
2025-05-18 16:48:08.753,-23,11,8,5,0,1,-2,0
2025-05-18 16:48:08.765,-1,-30,-9,-4,0,1,3,5
2025-05-18 16:48:08.774,-1,-30,-9,-4,0,1,3,5
2025-05-18 16:48:08.784,-12,-12,-13,-2,5,2,-6,-6
2025-05-18 16:48:08.797,-16,-8,-2,1,-5,-4,-2,-27
2025-05-18 16:48:08.808,16,23,9,-1,-3,-3,-2,8
2025-05-18 16:48:08.820,-16,-51,-5,-3,-5,-5,-6,-6
2025-05-18 16:48:08.830,-16,-51,-5,-3,-5,-5,-6,-6
2025-05-18 16:48:08.841,20,15,3,-2,-3,-3,7,-3
2025-05-18 16:48:08.851,-6,-11,2,-3,-2,-2,0,-8
2025-05-18 16:48:08.862,0,21,14,2,6,4,17,2
2025-05-18 16:48:08.872,-18,17,-6,2,-3,1,1,-1
2025-05-18 16:48:08.884,13,1,6,-1,-1,-3,-3,4
2025-05-18 16:48:08.894,13,1,6,-1,-1,-3,-3,4
2025-05-18 16:48:08.904,0,22,3,0,-3,-1,-5,1
2025-05-18 16:48:08.916,0,22,3,0,-3,-1,-5,1
2025-05-18 16:48:08.926,-2,13,8,2,-4,1,6,8
2025-05-18 16:48:08.937,7,4,-2,4,5,1,1,28
2025-05-18 16:48:08.948,7,4,-2,4,5,1,1,28
2025-05-18 16:48:08.959,7,4,-2,4,5,1,1,28
2025-05-18 16:48:08.968,13,-7,1,-3,-2,0,-4,-9
2025-05-18 16:48:08.978,13,-7,1,-3,-2,0,-4,-9
2025-05-18 16:48:08.989,13,-6,-5,2,7,-1,-3,-4
2025-05-18 16:48:09.000,21,4,1,0,-1,1,-4,8
2025-05-18 16:48:09.011,21,4,1,0,-1,1,-4,8
2025-05-18 16:48:09.022,-41,-42,-12,-2,0,-1,-4,-6
2025-05-18 16:48:09.033,-41,-42,-12,-2,0,-1,-4,-6
2025-05-18 16:48:09.044,4,-25,-4,-5,-5,1,4,-4
2025-05-18 16:48:09.054,4,-25,-4,-5,-5,1,4,-4
2025-05-18 16:48:09.065,10,13,-2,4,1,-4,-4,3
2025-05-18 16:48:09.076,10,13,-2,4,1,-4,-4,3
2025-05-18 16:48:09.086,2,23,3,-5,-3,-1,-4,-7
2025-05-18 16:48:09.097,2,23,3,-5,-3,-1,-4,-7
2025-05-18 16:48:09.108,-7,-1,2,0,-1,-2,-3,-4
2025-05-18 16:48:09.119,17,36,9,3,7,3,-5,-1
2025-05-18 16:48:09.128,17,36,9,3,7,3,-5,-1
2025-05-18 16:48:09.138,4,7,4,-2,-4,-4,-3,-7
2025-05-18 16:48:09.150,9,8,9,1,-3,-1,2,9
2025-05-18 16:48:09.161,9,8,9,1,-3,-1,2,9
2025-05-18 16:48:09.171,6,-14,-7,6,6,1,-2,1
2025-05-18 16:48:09.183,-4,-7,-4,-4,-5,-3,-5,-3
2025-05-18 16:48:09.192,-4,-7,-4,-4,-5,-3,-5,-3
2025-05-18 16:48:09.204,-14,-8,-4,-4,-4,0,20,4
2025-05-18 16:48:09.216,-14,-8,-4,-4,-4,0,20,4
2025-05-18 16:48:09.226,6,-20,-12,-2,1,-3,-12,3
2025-05-18 16:48:09.238,-2,8,-4,-2,-6,-4,-9,-3
2025-05-18 16:48:09.248,-2,8,-4,-2,-6,-4,-9,-3
2025-05-18 16:48:09.259,-2,8,-4,-2,-6,-4,-9,-3
2025-05-18 16:48:09.270,-5,3,0,0,-1,-2,-7,1
2025-05-18 16:48:09.280,-5,3,0,0,-1,-2,-7,1
2025-05-18 16:48:09.292,4,-11,6,1,2,4,-2,1
2025-05-18 16:48:09.301,-24,-55,-7,0,3,-1,-6,-6
2025-05-18 16:48:09.313,-24,-55,-7,0,3,-1,-6,-6
2025-05-18 16:48:09.324,-19,-14,7,-3,0,-3,-7,-10
2025-05-18 16:48:09.335,-19,-14,7,-3,0,-3,-7,-10
2025-05-18 16:48:09.346,7,-4,-6,-4,-8,-3,-4,19
2025-05-18 16:48:09.357,-26,-2,6,0,0,-1,-8,-7
2025-05-18 16:48:09.368,-26,-2,6,0,0,-1,-8,-7
2025-05-18 16:48:09.378,-26,-2,6,0,0,-1,-8,-7
2025-05-18 16:48:09.390,24,-6,4,-4,-1,-1,-2,-8
2025-05-18 16:48:09.400,24,-6,4,-4,-1,-1,-2,-8
2025-05-18 16:48:09.410,2,5,-2,1,1,0,-3,-2
2025-05-18 16:48:09.420,25,14,3,3,-4,1,23,7
2025-05-18 16:48:09.432,25,14,3,3,-4,1,23,7
2025-05-18 16:48:09.441,-22,2,-6,2,5,1,-10,-15
2025-05-18 16:48:09.452,-22,2,-6,2,5,1,-10,-15
2025-05-18 16:48:09.462,6,-23,2,4,1,-4,-6,7
2025-05-18 16:48:09.472,6,-23,2,4,1,-4,-6,7
2025-05-18 16:48:09.483,-19,-19,-8,-6,-6,-3,-4,-14
2025-05-18 16:48:09.494,18,19,-2,-4,-9,-5,-4,-17
2025-05-18 16:48:09.503,9,9,-5,-3,-2,1,-5,9
2025-05-18 16:48:09.514,9,9,-5,-3,-2,1,-5,9
2025-05-18 16:48:09.524,-6,-3,2,0,2,0,-7,0
2025-05-18 16:48:09.536,-6,-3,2,0,2,0,-7,0
2025-05-18 16:48:09.547,38,-13,0,4,2,-2,-5,15
2025-05-18 16:48:09.558,38,-13,0,4,2,-2,-5,15
2025-05-18 16:48:09.571,-6,-18,-2,-3,1,1,-2,15
2025-05-18 16:48:09.581,-6,-18,-2,-3,1,1,-2,15
2025-05-18 16:48:09.591,-31,2,1,0,2,-3,-4,7
2025-05-18 16:48:09.601,11,-2,-4,1,-3,-1,-5,6
2025-05-18 16:48:09.612,11,-2,-4,1,-3,-1,-5,6
2025-05-18 16:48:09.625,21,20,7,0,0,-5,-9,-16
2025-05-18 16:48:09.636,21,20,7,0,0,-5,-9,-16
2025-05-18 16:48:09.646,-8,-24,-4,-1,2,5,1,-2
2025-05-18 16:48:09.658,2,-7,-6,-5,-3,-1,2,-3
2025-05-18 16:48:09.668,13,27,14,2,2,1,1,5
2025-05-18 16:48:09.680,22,8,5,1,3,2,0,7
2025-05-18 16:48:09.691,22,8,5,1,3,2,0,7
2025-05-18 16:48:09.702,19,15,1,-5,-3,-4,2,-9
2025-05-18 16:48:09.713,-12,-36,1,-2,-1,-5,-7,-16
2025-05-18 16:48:09.723,-16,-2,-6,-3,-2,-1,1,-7
2025-05-18 16:48:09.734,3,-8,-6,-1,-5,-4,-3,0
2025-05-18 16:48:09.744,-2,-7,-2,5,0,0,2,7
2025-05-18 16:48:09.756,-2,-7,-2,5,0,0,2,7
2025-05-18 16:48:09.767,1,16,0,3,3,4,-6,0
2025-05-18 16:48:09.779,-17,-1,3,-4,-2,-1,24,16
2025-05-18 16:48:09.791,-14,-46,-3,-1,-1,-1,-3,-7
2025-05-18 16:48:09.801,-22,-3,-2,-2,-2,-3,-5,-1
2025-05-18 16:48:09.813,-22,-3,-2,-2,-2,-3,-5,-1
2025-05-18 16:48:09.823,-1,-45,0,-5,-3,-2,-7,1
2025-05-18 16:48:09.834,-1,-45,0,-5,-3,-2,-7,1
2025-05-18 16:48:09.846,2,-17,-6,-4,0,-4,-4,4
2025-05-18 16:48:09.857,2,-17,-6,-4,0,-4,-4,4
2025-05-18 16:48:09.867,14,27,4,3,2,0,-5,6
2025-05-18 16:48:09.878,14,27,4,3,2,0,-5,6
2025-05-18 16:48:09.890,15,24,1,0,-3,-7,-2,13
2025-05-18 16:48:09.900,-4,29,-13,1,1,3,1,7
2025-05-18 16:48:09.911,-10,-6,-9,0,-3,1,-5,-3
2025-05-18 16:48:09.921,21,10,4,-2,-2,-2,-5,2
