Timestamp,Pod1,Pod2,Pod3,Pod4,Pod5,Pod6,Pod7,Pod8
2025-05-18 18:17:21.512,-3,-2,1,-1,-1,-1,-2,-4
2025-05-18 18:17:21.523,0,4,-2,1,2,0,-2,8
2025-05-18 18:17:21.535,-19,2,-4,-3,-2,-1,-3,-12
2025-05-18 18:17:21.545,-12,-5,-1,-1,-2,-2,-3,4
2025-05-18 18:17:21.555,-12,-5,-1,-1,-2,-2,-3,4
2025-05-18 18:17:21.566,2,0,-1,-1,2,-1,-2,4
2025-05-18 18:17:21.576,2,0,-1,-1,2,-1,-2,4
2025-05-18 18:17:21.586,1,-3,-2,-3,-3,-2,-3,0
2025-05-18 18:17:21.597,1,-3,-2,-3,-3,-2,-3,0
2025-05-18 18:17:21.608,-1,4,0,1,2,-1,0,-6
2025-05-18 18:17:21.620,-2,-6,-2,0,-3,0,1,-2
2025-05-18 18:17:21.631,-2,-6,-2,0,-3,0,1,-2
2025-05-18 18:17:21.642,1,3,0,-2,-2,-1,-1,-2
2025-05-18 18:17:21.652,-19,-7,-3,-4,-6,-1,-2,28
2025-05-18 18:17:21.662,-19,-7,-3,-4,-6,-1,-2,28
2025-05-18 18:17:21.673,-7,-2,-2,-2,-1,-2,-1,-4
2025-05-18 18:17:21.684,2,-8,-2,1,-1,1,-2,-11
2025-05-18 18:17:21.695,2,-8,-2,1,-1,1,-2,-11
2025-05-18 18:17:21.706,-9,-2,-2,-1,2,-5,-3,-9
2025-05-18 18:17:21.717,-9,-2,-2,-1,2,-5,-3,-9
2025-05-18 18:17:21.727,7,-1,-1,0,-4,0,-3,-3
2025-05-18 18:17:21.737,3,0,-2,-2,0,-2,0,-2
2025-05-18 18:17:21.748,13,3,2,2,2,2,1,-1
2025-05-18 18:17:21.758,13,3,2,2,2,2,1,-1
2025-05-18 18:17:21.768,20,6,-1,-2,-1,-1,-2,-3
2025-05-18 18:17:21.780,20,6,-1,-2,-1,-1,-2,-3
2025-05-18 18:17:21.790,-8,1,0,0,0,0,1,0
2025-05-18 18:17:21.801,0,10,1,0,-1,-1,0,-1
2025-05-18 18:17:21.812,-6,0,-1,2,1,0,-1,0
2025-05-18 18:17:21.822,6,-1,2,3,-1,1,-1,2
2025-05-18 18:17:21.832,6,-1,2,3,-1,1,-1,2
2025-05-18 18:17:21.843,6,-1,2,3,-1,1,-1,2
2025-05-18 18:17:21.854,10,0,-1,-1,-2,-2,-2,1
2025-05-18 18:17:21.865,-13,10,-1,0,-4,-2,-3,-2
2025-05-18 18:17:21.875,-13,10,-1,0,-4,-2,-3,-2
2025-05-18 18:17:21.886,4,-5,1,-2,1,0,0,-3
2025-05-18 18:17:21.896,4,-5,1,-2,1,0,0,-3
2025-05-18 18:17:21.907,8,-7,-1,-3,-1,-2,-3,5
2025-05-18 18:17:21.918,1,0,-1,-2,1,-1,1,8
2025-05-18 18:17:21.929,3,6,2,1,1,1,-1,2
2025-05-18 18:17:21.940,3,6,2,1,1,1,-1,2
2025-05-18 18:17:21.950,8,-23,-5,-2,0,0,0,0
2025-05-18 18:17:21.960,8,-23,-5,-2,0,0,0,0
2025-05-18 18:17:21.971,-10,-8,-1,0,0,-1,-1,-3
2025-05-18 18:17:21.983,1,-3,0,1,4,-1,1,-6
2025-05-18 18:17:21.993,-3,3,-2,0,-1,0,-1,2
2025-05-18 18:17:22.004,0,3,0,0,1,0,0,-3
2025-05-18 18:17:22.015,0,3,0,0,1,0,0,-3
2025-05-18 18:17:22.026,-2,-2,0,-3,-1,-1,0,-2
2025-05-18 18:17:22.036,-2,-2,0,-3,-1,-1,0,-2
2025-05-18 18:17:22.047,-5,5,1,2,4,-2,0,7
2025-05-18 18:17:22.057,-5,5,1,2,4,-2,0,7
2025-05-18 18:17:22.069,-6,5,-1,-2,-3,-1,-3,-5
2025-05-18 18:17:22.079,-6,5,-1,-2,-3,-1,-3,-5
2025-05-18 18:17:22.090,8,1,0,-2,-2,0,-1,1
2025-05-18 18:17:22.101,-9,-5,1,-2,-3,1,2,9
2025-05-18 18:17:22.112,-4,-6,-3,0,-3,0,-2,-2
2025-05-18 18:17:22.122,0,-6,-4,-1,-3,-1,-1,-10
2025-05-18 18:17:22.134,0,-6,-4,-1,-3,-1,-1,-10
2025-05-18 18:17:22.145,-1,-2,-3,-3,-3,-3,-1,3
2025-05-18 18:17:22.156,-1,0,-2,-4,-2,-1,-2,-3
2025-05-18 18:17:22.168,-1,1,2,1,-1,-1,-3,2
2025-05-18 18:17:22.179,-1,1,2,1,-1,-1,-3,2
2025-05-18 18:17:22.188,1,-5,-1,0,2,1,0,2
2025-05-18 18:17:22.200,1,-5,-1,0,2,1,0,2
2025-05-18 18:17:22.211,4,-5,-3,-1,1,-2,-3,-5
2025-05-18 18:17:22.223,-6,-3,-1,-1,0,-2,2,9
2025-05-18 18:17:22.233,8,-4,-4,-3,-4,-1,-3,6
2025-05-18 18:17:22.244,1,-8,1,-2,-1,0,-1,-5
2025-05-18 18:17:22.255,1,-8,1,-2,-1,0,-1,-5
2025-05-18 18:17:22.266,-10,1,0,0,0,-1,-2,-2
2025-05-18 18:17:22.277,-8,-2,-1,-3,-1,0,0,4
2025-05-18 18:17:22.288,-2,-3,0,-1,1,0,-3,-4
2025-05-18 18:17:22.299,-2,-3,0,-1,1,0,-3,-4
2025-05-18 18:17:22.309,-9,13,1,1,-2,-3,-1,5
2025-05-18 18:17:22.320,-9,13,1,1,-2,-3,-1,5
2025-05-18 18:17:22.331,0,0,0,-1,1,1,-1,-3
2025-05-18 18:17:22.342,8,0,-1,-1,-2,0,1,-1
2025-05-18 18:17:22.352,3,-2,-1,-1,1,1,1,1
2025-05-18 18:17:22.363,4,2,0,1,-1,0,-2,-12
2025-05-18 18:17:22.374,4,2,0,1,-1,0,-2,-12
2025-05-18 18:17:22.386,31,0,-2,-3,-4,-3,-1,6
2025-05-18 18:17:22.397,14,6,0,-1,-2,-1,0,2
2025-05-18 18:17:22.408,-8,-3,-3,0,-1,-2,-3,3
2025-05-18 18:17:22.418,-8,-3,-3,0,-1,-2,-3,3
2025-05-18 18:17:22.430,-7,-6,-3,-1,-1,-2,-3,0
2025-05-18 18:17:22.439,-7,-6,-3,-1,-1,-2,-3,0
2025-05-18 18:17:22.451,-14,-7,-1,-1,0,1,-1,30
2025-05-18 18:17:22.461,-5,3,-1,-1,-1,-4,-1,-3
2025-05-18 18:17:22.473,-18,-10,-1,-1,-1,-1,-3,3
2025-05-18 18:17:22.483,1,0,-1,0,0,-1,-2,-7
2025-05-18 18:17:22.494,1,0,-1,0,0,-1,-2,-7
2025-05-18 18:17:22.505,11,1,-3,-3,-3,-1,-1,-6
2025-05-18 18:17:22.517,11,1,-3,-3,-3,-1,-1,-6
2025-05-18 18:17:22.526,-6,-3,-1,-3,-2,-1,2,7
2025-05-18 18:17:22.537,1,4,0,-1,0,0,-2,-6
2025-05-18 18:17:22.548,-25,-4,-2,-2,-3,-2,0,26
2025-05-18 18:17:22.559,-25,-4,-2,-2,-3,-2,0,26
2025-05-18 18:17:22.570,8,1,-1,-1,0,1,-2,1
2025-05-18 18:17:22.581,8,1,-1,-1,0,1,-2,1
2025-05-18 18:17:22.592,8,-4,0,0,3,1,-1,-9
2025-05-18 18:17:22.603,12,1,-1,1,-1,0,-2,-10
2025-05-18 18:17:22.616,12,1,-1,1,-1,0,-2,-10
2025-05-18 18:17:22.627,6,0,-2,-3,-1,-2,-1,-1
2025-05-18 18:17:22.637,6,0,-2,-3,-1,-2,-1,-1
2025-05-18 18:17:22.647,10,2,-1,1,2,-3,-2,-13
2025-05-18 18:17:22.658,10,2,-1,1,2,-3,-2,-13
2025-05-18 18:17:22.670,-22,-9,-2,-1,-6,-4,-3,2
2025-05-18 18:17:22.681,-22,-9,-2,-1,-6,-4,-3,2
2025-05-18 18:17:22.692,9,4,3,1,0,0,-3,-4
2025-05-18 18:17:22.703,9,4,3,1,0,0,-3,-4
2025-05-18 18:17:22.714,-13,-7,-2,-3,-2,-1,-1,-8
2025-05-18 18:17:22.725,-7,5,-1,-1,3,-2,-4,1
2025-05-18 18:17:22.735,3,-6,-3,-1,-1,-1,0,1
2025-05-18 18:17:22.746,15,-1,-1,-2,-2,-3,-2,-12
2025-05-18 18:17:22.759,15,-1,-1,-2,-2,-3,-2,-12
2025-05-18 18:17:22.770,-3,3,-2,0,-2,0,1,12
2025-05-18 18:17:22.780,19,2,-1,-1,-3,0,2,3
2025-05-18 18:17:22.791,-3,-1,0,2,6,0,-1,-1
2025-05-18 18:17:22.802,-3,-1,0,2,6,0,-1,-1
2025-05-18 18:17:22.813,-1,-2,-1,-2,-2,0,-1,-5
2025-05-18 18:17:22.824,-1,-2,-1,-2,-2,0,-1,-5
2025-05-18 18:17:22.836,-25,-6,-1,-2,-4,-1,-3,28
2025-05-18 18:17:22.846,0,-2,-1,-2,-3,-1,-1,-7
2025-05-18 18:17:22.856,3,-5,-4,-3,-3,-4,-3,-8
2025-05-18 18:17:22.867,11,-7,-2,-2,-1,-2,-2,-8
2025-05-18 18:17:22.878,11,-7,-2,-2,-1,-2,-2,-8
2025-05-18 18:17:22.889,0,6,-2,-1,-4,-1,-2,-9
2025-05-18 18:17:22.899,0,6,-2,-1,-4,-1,-2,-9
2025-05-18 18:17:22.910,6,2,1,0,0,0,0,-1
2025-05-18 18:17:22.921,6,2,1,0,0,0,0,-1
2025-05-18 18:17:22.933,-9,-2,1,0,-2,-1,-3,0
2025-05-18 18:17:22.945,-9,-2,1,0,-2,-1,-3,0
2025-05-18 18:17:22.955,-6,-3,-2,-3,-1,-3,-4,2
2025-05-18 18:17:22.966,2,0,0,0,-1,-1,-1,-3
2025-05-18 18:17:22.977,2,0,0,0,-1,-1,-1,-3
2025-05-18 18:17:22.987,5,-5,0,1,1,0,0,-2
2025-05-18 18:17:22.999,5,-5,0,1,1,0,0,-2
2025-05-18 18:17:23.009,0,-2,1,1,0,0,-1,-3
2025-05-18 18:17:23.020,-9,-4,-1,-2,-4,0,-3,0
2025-05-18 18:17:23.030,-3,1,-2,0,0,0,-2,-4
2025-05-18 18:17:23.041,-3,1,-2,0,0,0,-2,-4
2025-05-18 18:17:23.051,0,-2,-2,-2,0,0,-1,1
2025-05-18 18:17:23.061,0,-2,-2,-2,0,0,-1,1
2025-05-18 18:17:23.072,-2,-1,-2,-1,-1,-1,-1,-3
2025-05-18 18:17:23.083,-3,0,1,0,-2,-1,0,-2
2025-05-18 18:17:23.094,3,0,-2,0,2,-3,-1,1
2025-05-18 18:17:23.105,-3,-3,-1,-1,-2,-1,-3,-5
2025-05-18 18:17:23.115,-3,-3,-1,-1,-2,-1,-3,-5
2025-05-18 18:17:23.126,-2,-6,-1,-1,0,1,-1,7
2025-05-18 18:17:23.137,-1,5,-3,-1,-4,-2,-2,2
2025-05-18 18:17:23.149,3,-5,-2,0,-2,-1,-1,-6
2025-05-18 18:17:23.160,3,-5,-2,0,-2,-1,-1,-6
2025-05-18 18:17:23.172,-17,-4,0,-1,-1,-1,-2,2
2025-05-18 18:17:23.184,-17,-4,0,-1,-1,-1,-2,2
2025-05-18 18:17:23.194,2,-1,-1,-2,0,-1,0,0
2025-05-18 18:17:23.206,1,-1,-1,0,-2,-3,0,-6
2025-05-18 18:17:23.217,-1,-1,-2,0,1,2,0,-3
2025-05-18 18:17:23.228,-7,-4,-2,-2,-4,-4,-3,-4
2025-05-18 18:17:23.240,-7,-4,-2,-2,-4,-4,-3,-4
2025-05-18 18:17:23.251,-5,-1,-1,-1,1,-1,-2,-4
2025-05-18 18:17:23.262,2,-3,0,-3,-3,1,-1,1
2025-05-18 18:17:23.273,1,-3,-1,-1,0,-2,-3,1
2025-05-18 18:17:23.283,2,1,0,0,0,-1,0,-3
2025-05-18 18:17:23.295,1,-2,-2,-1,-2,-1,-2,0
2025-05-18 18:17:23.305,1,2,-1,-2,-4,1,-1,1
2025-05-18 18:17:23.316,1,2,-1,-2,-4,1,-1,1
2025-05-18 18:17:23.327,-3,1,-2,-2,-1,-2,-1,-5
2025-05-18 18:17:23.338,-2,-2,-3,-3,-2,-2,-3,-4
2025-05-18 18:17:23.350,10,3,-1,-3,-1,-2,-1,3
2025-05-18 18:17:23.360,10,3,-1,-3,-1,-2,-1,3
2025-05-18 18:17:23.370,6,-1,0,1,-1,-2,-1,1
2025-05-18 18:17:23.381,6,-1,0,1,-1,-2,-1,1
2025-05-18 18:17:23.393,-8,-8,-4,-3,-3,0,-1,-1
2025-05-18 18:17:23.404,-2,-3,-1,-1,0,-2,-1,0
2025-05-18 18:17:23.416,-2,-3,-1,-1,0,-2,-1,0
2025-05-18 18:17:23.426,-5,0,-1,0,-2,0,-1,-3
2025-05-18 18:17:23.437,-5,0,-1,0,-2,0,-1,-3
2025-05-18 18:17:23.447,0,-2,1,1,1,-1,-1,-1
2025-05-18 18:17:23.458,-2,0,2,0,1,-2,-2,-1
2025-05-18 18:17:23.470,16,1,-4,-1,-1,-2,0,0
2025-05-18 18:17:23.481,16,1,-4,-1,-1,-2,0,0
2025-05-18 18:17:23.491,0,2,2,1,0,-1,0,-1
2025-05-18 18:17:23.502,0,2,2,1,0,-1,0,-1
2025-05-18 18:17:23.514,-15,-3,-2,0,0,0,-3,3
2025-05-18 18:17:23.525,-14,2,-1,-1,-2,-3,-1,1
2025-05-18 18:17:23.534,-14,2,-1,-1,-2,-3,-1,1
2025-05-18 18:17:23.547,1,-2,-1,0,-2,-2,-2,-6
2025-05-18 18:17:23.557,1,-2,-1,0,-2,-2,-2,-6
2025-05-18 18:17:23.567,-3,-4,-1,-2,0,-1,0,-3
2025-05-18 18:17:23.578,-3,-4,-1,-2,0,-1,0,-3
2025-05-18 18:17:23.589,0,-3,0,-1,-2,-2,-2,-2
2025-05-18 18:17:23.601,0,-3,0,-1,-2,-2,-2,-2
2025-05-18 18:17:23.611,6,1,-4,-2,-1,-1,-2,-2
2025-05-18 18:17:23.622,6,1,-4,-2,-1,-1,-2,-2
2025-05-18 18:17:23.633,-1,-2,-2,0,0,-1,0,5
2025-05-18 18:17:23.643,2,1,-1,-1,0,-2,-1,-4
2025-05-18 18:17:23.655,2,1,-1,-1,0,-2,-1,-4
2025-05-18 18:17:23.666,-1,1,0,0,-3,-1,-1,-1
2025-05-18 18:17:23.677,-1,1,0,0,-3,-1,-1,-1
2025-05-18 18:17:23.688,-3,2,-3,0,0,-1,-1,0
2025-05-18 18:17:23.699,-3,2,-3,0,0,-1,-1,0
2025-05-18 18:17:23.711,-3,-3,-2,-3,-2,-1,-1,-3
2025-05-18 18:17:23.721,-3,-3,-2,-3,-2,-1,-1,-3
2025-05-18 18:17:23.732,-1,3,-2,0,-2,-2,-2,-3
2025-05-18 18:17:23.743,-1,3,-2,0,-2,-2,-2,-3
2025-05-18 18:17:23.754,12,1,-2,-4,-2,-2,-2,-1
2025-05-18 18:17:23.765,-1,-3,-1,-1,-1,-1,-2,-2
2025-05-18 18:17:23.776,-1,-3,-1,-1,-1,-1,-2,-2
2025-05-18 18:17:23.786,-5,-3,-1,-2,-1,-2,-2,-1
2025-05-18 18:17:23.796,-5,-3,-1,-2,-1,-2,-2,-1
2025-05-18 18:17:23.807,-3,0,-3,-1,-1,1,-1,-2
2025-05-18 18:17:23.821,-3,0,-3,-1,-1,1,-1,-2
2025-05-18 18:17:23.831,-7,-3,-2,-2,-3,-3,-1,-2
2025-05-18 18:17:23.842,-7,-3,-2,-2,-3,-3,-1,-2
2025-05-18 18:17:23.853,-9,-2,-1,1,0,0,0,1
2025-05-18 18:17:23.864,-9,-2,-1,1,0,0,0,1
2025-05-18 18:17:23.874,2,-2,-2,-1,-3,-1,-1,-3
2025-05-18 18:17:23.887,4,-1,1,0,-3,-2,0,-7
2025-05-18 18:17:23.897,4,-1,1,0,-3,-2,0,-7
2025-05-18 18:17:23.909,-7,-5,-3,-1,-1,-2,-2,0
2025-05-18 18:17:23.920,-7,-5,-3,-1,-1,-2,-2,0
2025-05-18 18:17:23.931,-14,-2,-1,-1,0,-1,-3,-5
2025-05-18 18:17:23.942,-9,-4,0,0,-2,0,-1,12
2025-05-18 18:17:23.954,4,-2,0,-3,0,0,1,-3
2025-05-18 18:17:23.965,-3,-4,-2,-1,0,-1,1,9
2025-05-18 18:17:23.976,0,3,1,-2,-1,-3,-2,5
2025-05-18 18:17:23.986,0,3,1,-2,-1,-3,-2,5
2025-05-18 18:17:23.997,6,-6,-3,-1,0,-1,-2,-1
2025-05-18 18:17:24.008,-4,-2,2,0,0,-1,-2,-2
2025-05-18 18:17:24.020,-4,-2,2,0,0,-1,-2,-2
2025-05-18 18:17:24.032,-2,1,-3,0,-3,-2,0,1
2025-05-18 18:17:24.042,-2,1,-3,0,-3,-2,0,1
2025-05-18 18:17:24.053,3,1,-2,-1,-2,-1,1,0
2025-05-18 18:17:24.064,1,-5,-2,0,-2,-2,-2,1
2025-05-18 18:17:24.075,-2,1,-4,-1,-1,-3,-1,-2
2025-05-18 18:17:24.086,-2,0,-2,-2,0,-2,-2,0
2025-05-18 18:17:24.097,-2,0,-2,-2,0,-2,-2,0
2025-05-18 18:17:24.108,4,0,1,0,1,2,0,1
2025-05-18 18:17:24.119,-2,-1,-2,-3,-2,-2,0,-3
2025-05-18 18:17:24.130,0,-2,-2,-1,-2,-2,-1,3
2025-05-18 18:17:24.141,-3,-5,-3,-2,-2,-4,-6,-14
2025-05-18 18:17:24.152,-3,-1,-1,-1,-2,-1,0,0
2025-05-18 18:17:24.163,-3,-1,-1,-1,-2,-1,0,0
2025-05-18 18:17:24.174,-1,3,-5,-4,-1,-2,-1,1
2025-05-18 18:17:24.186,-1,-1,1,-1,2,1,0,1
2025-05-18 18:17:24.196,0,0,-1,-2,-2,0,-1,0
2025-05-18 18:17:24.208,-3,-3,0,-2,-1,-2,-1,-3
2025-05-18 18:17:24.220,-3,-3,0,-2,-1,-2,-1,-3
2025-05-18 18:17:24.230,-1,1,-2,0,-1,0,2,2
2025-05-18 18:17:24.242,16,2,-2,-1,-1,1,-1,-2
2025-05-18 18:17:24.252,0,2,-1,0,0,-1,0,3
2025-05-18 18:17:24.264,0,2,-1,0,0,-1,0,3
2025-05-18 18:17:24.275,-1,-5,0,-1,-2,-2,-2,-6
2025-05-18 18:17:24.286,-1,-5,0,-1,-2,-2,-2,-6
2025-05-18 18:17:24.296,1,0,0,0,2,-1,-1,3
2025-05-18 18:17:24.308,-2,-4,-3,-1,-2,1,0,-1
2025-05-18 18:17:24.319,3,-7,-2,0,-4,0,0,2
2025-05-18 18:17:24.330,-2,0,-3,-2,0,-2,-2,-2
2025-05-18 18:17:24.342,-2,0,-3,-2,0,-2,-2,-2
2025-05-18 18:17:24.352,0,1,-1,0,-1,1,0,0
2025-05-18 18:17:24.363,0,-4,-1,0,-1,0,0,8
2025-05-18 18:17:24.374,-9,-3,-1,-2,-1,-3,-4,-11
2025-05-18 18:17:24.385,4,0,1,1,-1,-1,1,5
2025-05-18 18:17:24.397,4,0,1,1,-1,-1,1,5
2025-05-18 18:17:24.408,2,3,-3,-2,-4,-3,-2,-5
2025-05-18 18:17:24.420,2,3,-3,-2,-4,-3,-2,-5
2025-05-18 18:17:24.430,-5,1,0,0,-4,0,-2,6
2025-05-18 18:17:24.442,-3,-4,0,-1,-2,-1,0,-9
2025-05-18 18:17:24.453,-3,2,0,-1,-2,-1,-1,1
2025-05-18 18:17:24.464,-3,2,0,-1,-2,-1,-1,1
2025-05-18 18:17:24.476,0,-2,-1,-1,0,-1,-1,1
2025-05-18 18:17:24.486,0,-2,-1,-1,0,-1,-1,1
2025-05-18 18:17:24.496,-13,-3,-1,-2,2,-4,-2,-3
2025-05-18 18:17:24.506,-4,0,-1,-2,-1,-2,0,-3
2025-05-18 18:17:24.518,-4,0,-1,-2,-1,-2,0,-3
2025-05-18 18:17:24.530,0,2,0,-2,-1,-3,-2,2
2025-05-18 18:17:24.540,0,2,0,-2,-1,-3,-2,2
2025-05-18 18:17:24.551,0,3,-4,-2,-3,0,-1,-3
2025-05-18 18:17:24.563,0,3,-4,-2,-3,0,-1,-3
2025-05-18 18:17:24.576,-3,2,-1,0,0,-5,-1,-2
2025-05-18 18:17:24.587,-4,0,-2,0,-1,1,1,2
2025-05-18 18:17:24.597,2,-1,-3,-1,-2,-2,0,0
2025-05-18 18:17:24.608,2,-1,-3,-1,-2,-2,0,0
2025-05-18 18:17:24.620,2,-1,-1,-1,-1,1,3,9
2025-05-18 18:17:24.631,-7,-1,-1,-1,-2,-1,-6,-47
2025-05-18 18:17:24.643,-7,-1,-1,-1,-2,-1,-6,-47
2025-05-18 18:17:24.654,-1,-4,-1,-2,-2,0,1,17
2025-05-18 18:17:24.664,-1,-4,-1,-2,-2,0,1,17
2025-05-18 18:17:24.676,-5,-9,-1,0,0,-2,-1,6
2025-05-18 18:17:24.686,4,5,-2,-4,-3,0,-1,4
2025-05-18 18:17:24.697,4,5,-2,-4,-3,0,-1,4
2025-05-18 18:17:24.709,2,8,-3,-4,-2,-1,1,-1
2025-05-18 18:17:24.720,2,8,-3,-4,-2,-1,1,-1
2025-05-18 18:17:24.731,7,0,-2,-1,0,-2,0,5
2025-05-18 18:17:24.742,7,0,-2,-1,0,-2,0,5
2025-05-18 18:17:24.753,-13,-6,-3,-3,-2,-1,-3,-6
2025-05-18 18:17:24.764,-13,-6,-3,-3,-2,-1,-3,-6
2025-05-18 18:17:24.774,-2,1,-1,-1,-1,-1,0,-2
2025-05-18 18:17:24.785,-2,1,-1,-1,-1,-1,0,-2
2025-05-18 18:17:24.797,3,0,0,-2,0,-1,-1,0
2025-05-18 18:17:24.809,-2,-1,-1,1,-1,-2,-2,-6
2025-05-18 18:17:24.820,-2,-1,-1,1,-1,-2,-2,-6
2025-05-18 18:17:24.831,-6,-2,-2,-3,-3,-2,2,2
2025-05-18 18:17:24.842,-6,-2,-2,-3,-3,-2,2,2
2025-05-18 18:17:24.853,6,0,-1,-1,-2,-2,-1,-3
2025-05-18 18:17:24.863,6,0,-1,-1,-2,-2,-1,-3
2025-05-18 18:17:24.874,-7,-1,-1,-1,-4,-1,0,-3
2025-05-18 18:17:24.885,-7,-1,-1,-1,-4,-1,0,-3
2025-05-18 18:17:24.896,-8,0,0,-1,0,-1,-5,-17
2025-05-18 18:17:24.907,-8,0,0,-1,0,-1,-5,-17
2025-05-18 18:17:24.919,0,-3,-3,-1,-3,-2,1,2
2025-05-18 18:17:24.930,-5,2,1,1,-1,-2,-2,2
2025-05-18 18:17:24.941,-5,2,1,1,-1,-2,-2,2
2025-05-18 18:17:24.952,3,3,-1,-2,-1,-2,-1,1
2025-05-18 18:17:24.963,3,3,-1,-2,-1,-2,-1,1
2025-05-18 18:17:24.973,-2,2,-3,-2,2,-1,2,0
2025-05-18 18:17:24.985,-3,-5,0,0,1,0,1,0
2025-05-18 18:17:24.996,-3,0,-1,1,0,0,-1,2
2025-05-18 18:17:25.007,0,-5,-3,0,0,0,-3,1
2025-05-18 18:17:25.018,4,-2,-1,-1,-2,-3,-2,-1
2025-05-18 18:17:25.028,4,-2,-1,-1,-2,-3,-2,-1
2025-05-18 18:17:25.040,-9,-5,-1,0,0,-3,-3,-4
2025-05-18 18:17:25.051,1,-1,1,1,-1,0,-1,-11
2025-05-18 18:17:25.063,-1,-8,-4,-2,-2,-1,0,-2
2025-05-18 18:17:25.074,5,1,1,-2,-1,0,1,-1
2025-05-18 18:17:25.085,5,1,1,-2,-1,0,1,-1
2025-05-18 18:17:25.095,0,1,-2,-2,-3,-1,0,4
2025-05-18 18:17:25.105,-5,1,-1,-2,-2,0,-1,-1
2025-05-18 18:17:25.116,3,4,-1,-1,-2,-1,2,2
2025-05-18 18:17:25.127,8,-2,0,0,1,0,-1,5
2025-05-18 18:17:25.139,9,1,0,-3,0,-2,0,-1
2025-05-18 18:17:25.148,9,1,0,-3,0,-2,0,-1
2025-05-18 18:17:25.159,-5,0,-2,-2,-1,1,1,1
2025-05-18 18:17:25.170,7,0,0,0,0,0,0,3
2025-05-18 18:17:25.181,-5,3,0,0,-2,-1,-1,-2
2025-05-18 18:17:25.192,3,-3,-2,-1,0,-2,-2,-15
2025-05-18 18:17:25.203,3,-3,-2,-1,0,-2,-2,-15
2025-05-18 18:17:25.215,-7,1,0,-1,-1,-2,0,1
2025-05-18 18:17:25.225,0,-3,-1,0,-2,0,1,-1
2025-05-18 18:17:25.237,-7,2,-1,-1,-1,-1,-1,-10
2025-05-18 18:17:25.246,-7,2,-1,-1,-1,-1,-1,-10
2025-05-18 18:17:25.258,-6,-4,-3,-1,-2,-1,0,-1
2025-05-18 18:17:25.269,-6,-4,-3,-1,-2,-1,0,-1
2025-05-18 18:17:25.279,9,1,-1,-3,0,-1,-2,2
2025-05-18 18:17:25.291,2,-3,0,-1,0,-2,-2,4
2025-05-18 18:17:25.301,-2,3,1,0,-2,-2,0,1
2025-05-18 18:17:25.313,2,-1,-3,-2,-1,-1,0,-2
2025-05-18 18:17:25.324,2,-1,-3,-2,-1,-1,0,-2
2025-05-18 18:17:25.335,-1,-9,-2,0,0,-1,1,5
2025-05-18 18:17:25.346,-1,-9,-2,0,0,-1,1,5
2025-05-18 18:17:25.355,-3,0,-1,-2,0,-1,0,2
2025-05-18 18:17:25.366,-3,0,-1,-2,0,-1,0,2
2025-05-18 18:17:25.377,-7,0,0,0,-1,0,0,-3
2025-05-18 18:17:25.387,-7,0,0,0,-1,0,0,-3
2025-05-18 18:17:25.399,-5,1,-3,-1,-2,0,0,0
2025-05-18 18:17:25.409,-5,1,-3,-1,-2,0,0,0
2025-05-18 18:17:25.421,-10,3,1,1,-1,-1,1,-3
2025-05-18 18:17:25.432,2,4,-1,-2,0,-4,-2,-2
2025-05-18 18:17:25.442,2,4,-1,-2,0,-4,-2,-2
2025-05-18 18:17:25.454,-7,-4,0,0,-2,-1,-2,2
2025-05-18 18:17:25.465,-7,-4,0,0,-2,-1,-2,2
2025-05-18 18:17:25.477,-2,0,0,-1,1,-3,1,0
2025-05-18 18:17:25.488,-10,-4,-2,-3,-2,1,0,-7
2025-05-18 18:17:25.500,-10,-4,-2,-3,-2,1,0,-7
2025-05-18 18:17:25.511,12,-3,-2,-1,1,-2,-2,-2
2025-05-18 18:17:25.522,11,3,-2,-2,-2,1,-1,-5
2025-05-18 18:17:25.533,-1,-1,-1,1,-3,2,-3,2
2025-05-18 18:17:25.543,-1,0,0,-1,-1,-2,0,-1
2025-05-18 18:17:25.554,-1,0,0,-1,0,-1,0,0
2025-05-18 18:17:25.565,-1,0,0,-1,0,-1,0,0
2025-05-18 18:17:25.575,3,2,0,-1,-2,-1,-1,0
2025-05-18 18:17:25.586,3,2,0,-1,-2,-1,-1,0
2025-05-18 18:17:25.597,1,-2,-2,0,-1,-2,1,-3
2025-05-18 18:17:25.607,1,0,-2,-2,0,-3,-2,-4
2025-05-18 18:17:25.617,-3,-2,-1,-2,-1,-2,-3,-4
2025-05-18 18:17:25.632,-4,-1,0,-3,-2,-1,0,-1
2025-05-18 18:17:25.644,-4,-1,0,-3,-2,-1,0,-1
2025-05-18 18:17:25.653,7,-1,-2,0,-1,-1,1,-2
2025-05-18 18:17:25.664,7,-1,-2,0,-1,-1,1,-2
2025-05-18 18:17:25.674,-10,-5,-2,-2,-3,1,2,-3
2025-05-18 18:17:25.685,-10,-5,-2,-2,-3,1,2,-3
2025-05-18 18:17:25.695,2,3,1,-1,0,-2,-1,0
2025-05-18 18:17:25.708,2,3,1,-1,0,-2,-1,0
2025-05-18 18:17:25.719,-14,-5,-2,-2,-3,-2,-1,-6
2025-05-18 18:17:25.729,12,5,-2,-3,-1,0,-1,0
2025-05-18 18:17:25.739,12,5,-2,-3,-1,0,-1,0
2025-05-18 18:17:25.750,12,5,-2,-3,-1,0,-1,0
2025-05-18 18:17:25.761,-4,0,0,1,3,0,2,-2
2025-05-18 18:17:25.772,-4,0,0,1,3,0,2,-2
2025-05-18 18:17:25.783,-8,2,-1,0,-1,-2,0,-1
2025-05-18 18:17:25.795,8,2,0,1,-1,0,0,-7
2025-05-18 18:17:25.805,8,2,0,1,-1,0,0,-7
2025-05-18 18:17:25.817,-18,-1,-1,1,2,0,0,0
2025-05-18 18:17:25.829,-18,-1,-1,1,2,0,0,0
2025-05-18 18:17:25.839,-2,2,0,-2,-1,1,1,1
2025-05-18 18:17:25.850,2,3,0,-2,-4,-2,-1,-1
2025-05-18 18:17:25.861,2,3,0,-2,-4,-2,-1,-1
2025-05-18 18:17:25.872,0,3,1,-1,1,-2,2,-1
2025-05-18 18:17:25.882,0,3,1,-1,1,-2,2,-1
2025-05-18 18:17:25.892,0,3,1,-1,1,-2,2,-1
2025-05-18 18:17:25.903,-6,-1,-2,-1,-3,-3,-1,-2
2025-05-18 18:17:25.914,1,-3,-2,-1,-2,0,1,1
2025-05-18 18:17:25.925,1,-3,-2,-1,-2,0,1,1
2025-05-18 18:17:25.935,0,3,0,-2,-1,0,0,-1
2025-05-18 18:17:25.945,0,3,0,-2,-1,0,0,-1
2025-05-18 18:17:25.957,1,-1,1,-2,0,-1,0,-1
2025-05-18 18:17:25.968,3,1,-2,-1,-1,-2,-2,0
2025-05-18 18:17:25.979,1,-1,1,1,4,-1,-2,-2
2025-05-18 18:17:25.989,1,-1,1,1,4,-1,-2,-2
2025-05-18 18:17:26.000,-5,-4,-3,-3,-4,-1,-1,-3
2025-05-18 18:17:26.010,-5,-4,-3,-3,-4,-1,-1,-3
2025-05-18 18:17:26.022,9,4,-2,-1,-1,-1,1,3
2025-05-18 18:17:26.033,7,-1,-1,0,-3,-1,-2,1
2025-05-18 18:17:26.044,-2,2,0,-2,-2,-3,-2,-4
2025-05-18 18:17:26.054,-15,-5,-2,-2,-2,0,-2,4
2025-05-18 18:17:26.065,-15,-5,-2,-2,-2,0,-2,4
2025-05-18 18:17:26.077,8,-2,-3,-3,-4,0,1,0
2025-05-18 18:17:26.087,-6,-5,-3,-1,-2,-1,-1,-3
2025-05-18 18:17:26.098,-2,4,-2,-2,-2,-2,0,-2
2025-05-18 18:17:26.109,-2,4,-2,-2,-2,-2,0,-2
2025-05-18 18:17:26.120,-6,-2,0,0,-1,-2,-3,-6
2025-05-18 18:17:26.132,1,0,0,0,2,-1,0,1
2025-05-18 18:17:26.142,0,-1,-3,-1,-1,-2,0,-5
2025-05-18 18:17:26.153,15,-3,0,0,-1,-2,0,-2
2025-05-18 18:17:26.163,-7,1,-1,-2,-1,-1,-1,-7
2025-05-18 18:17:26.174,3,-2,-1,-1,-3,1,1,-1
2025-05-18 18:17:26.186,3,-2,-1,-1,-3,1,1,-1
2025-05-18 18:17:26.196,-3,-1,0,-1,-2,-1,-1,-3
2025-05-18 18:17:26.207,-5,-6,-1,-2,-1,0,0,0
2025-05-18 18:17:26.217,2,-4,-3,-3,-1,-1,1,3
2025-05-18 18:17:26.229,2,-4,-3,-3,-1,-1,1,3
2025-05-18 18:17:26.240,1,1,0,0,1,-2,1,0
2025-05-18 18:17:26.252,1,1,0,0,1,-2,1,0
2025-05-18 18:17:26.262,-2,-2,-2,-2,0,-1,0,-1
2025-05-18 18:17:26.273,-4,3,1,0,0,-1,0,1
2025-05-18 18:17:26.283,-2,1,-1,0,0,-1,0,-2
2025-05-18 18:17:26.294,3,1,0,0,0,0,-1,-1
2025-05-18 18:17:26.303,3,1,0,0,0,0,-1,-1
2025-05-18 18:17:26.314,-4,0,0,-1,1,-1,1,1
2025-05-18 18:17:26.325,-4,0,0,-1,1,-1,1,1
2025-05-18 18:17:26.336,-1,-12,-1,0,1,0,0,-1
2025-05-18 18:17:26.348,-1,-12,-1,0,1,0,0,-1
2025-05-18 18:17:26.358,21,1,-3,-2,-2,-2,-1,-4
2025-05-18 18:17:26.369,21,1,-3,-2,-2,-2,-1,-4
2025-05-18 18:17:26.379,-12,1,0,-2,-2,-1,1,1
2025-05-18 18:17:26.389,-12,1,0,-2,-2,-1,1,1
2025-05-18 18:17:26.399,-3,4,-1,-1,-2,-1,-1,-2
2025-05-18 18:17:26.410,-3,4,-1,-1,-2,-1,-1,-2
2025-05-18 18:17:26.420,1,6,0,0,-1,-1,1,8
2025-05-18 18:17:26.431,1,6,0,0,-1,-1,1,8
2025-05-18 18:17:26.441,-3,-1,0,1,2,0,2,-1
2025-05-18 18:17:26.452,-3,-1,0,1,2,0,2,-1
2025-05-18 18:17:26.464,-5,2,-1,-1,-2,-1,0,-5
2025-05-18 18:17:26.474,23,0,-1,1,-1,1,-1,-1
2025-05-18 18:17:26.486,-2,1,1,1,0,0,-1,-2
2025-05-18 18:17:26.496,-1,0,0,-3,-2,-1,1,-4
2025-05-18 18:17:26.506,-1,0,0,-3,-2,-1,1,-4
2025-05-18 18:17:26.517,-2,5,-1,-1,-2,-1,0,0
2025-05-18 18:17:26.528,-2,5,-1,-1,-2,-1,0,0
2025-05-18 18:17:26.540,-1,-2,-2,-1,-2,-1,-2,-3
2025-05-18 18:17:26.550,-1,-2,-2,-1,-2,-1,-2,-3
2025-05-18 18:17:26.561,-1,6,0,-2,-1,-2,0,-2
2025-05-18 18:17:26.572,-1,6,0,-2,-1,-2,0,-2
2025-05-18 18:17:26.583,8,-6,-5,-2,-1,-2,-1,-1
2025-05-18 18:17:26.593,15,-1,-1,-1,0,0,-1,3
2025-05-18 18:17:26.604,-5,-1,-2,-1,0,0,0,0
2025-05-18 18:17:26.615,-1,-1,0,-1,2,-2,-1,-1
2025-05-18 18:17:26.626,-1,-1,0,-1,2,-2,-1,-1
2025-05-18 18:17:26.637,-4,1,1,0,-2,-3,-2,-2
2025-05-18 18:17:26.648,-4,1,1,0,-2,-3,-2,-2
2025-05-18 18:17:26.657,-3,3,-3,-1,-2,-1,0,-1
2025-05-18 18:17:26.669,-3,3,-3,-1,-2,-1,0,-1
2025-05-18 18:17:26.678,-1,-3,-2,-2,-2,0,2,0
2025-05-18 18:17:26.690,-1,-3,-2,-2,-2,0,2,0
2025-05-18 18:17:26.700,-13,0,-1,-2,0,-1,0,-5
2025-05-18 18:17:26.711,1,-3,-1,-1,-1,-1,-4,1
2025-05-18 18:17:26.722,-3,-3,1,-1,-1,-1,1,-4
2025-05-18 18:17:26.733,-1,2,-2,0,3,-1,-1,-1
2025-05-18 18:17:26.744,5,2,1,-1,-2,-3,0,-2
2025-05-18 18:17:26.753,5,2,1,-1,-2,-3,0,-2
2025-05-18 18:17:26.763,0,-1,-1,1,0,0,0,-3
2025-05-18 18:17:26.774,-3,-3,-1,0,-1,0,-3,-4
2025-05-18 18:17:26.786,1,0,0,-1,-1,0,-1,1
2025-05-18 18:17:26.797,1,-3,-1,-1,-2,1,-2,-4
2025-05-18 18:17:26.806,1,-3,-1,-1,-2,1,-2,-4
2025-05-18 18:17:26.817,-6,0,-2,-2,-1,1,2,-1
2025-05-18 18:17:26.829,6,-1,-1,-3,-4,-2,-1,2
2025-05-18 18:17:26.840,-16,-5,-2,-1,-1,-4,-2,-6
2025-05-18 18:17:26.851,-16,-5,-2,-1,-1,-4,-2,-6
2025-05-18 18:17:26.862,3,-1,0,-2,-2,0,0,1
2025-05-18 18:17:26.873,3,-1,0,-2,-2,0,0,1
2025-05-18 18:17:26.884,3,5,0,-1,-1,-1,-2,-2
2025-05-18 18:17:26.896,9,1,1,0,-1,0,1,5
2025-05-18 18:17:26.907,3,-1,-1,-1,0,0,-1,-2
2025-05-18 18:17:26.919,-3,0,-1,-1,-1,-2,-1,-10
2025-05-18 18:17:26.929,-3,0,-1,-1,-1,-2,-1,-10
2025-05-18 18:17:26.941,4,-1,0,-1,-2,0,0,6
2025-05-18 18:17:26.952,1,-5,-1,0,1,-1,0,2
2025-05-18 18:17:26.962,-1,0,-2,-3,-4,0,1,2
2025-05-18 18:17:26.974,3,-2,-2,-2,-3,-2,0,-3
2025-05-18 18:17:26.985,3,-2,-2,-2,-3,-2,0,-3
2025-05-18 18:17:26.995,3,-2,-2,-2,-3,-2,0,-3
2025-05-18 18:17:27.005,-2,1,0,-1,0,-1,2,-1
2025-05-18 18:17:27.017,4,-3,-2,-3,-2,1,0,1
2025-05-18 18:17:27.028,0,0,1,2,2,0,-1,-1
2025-05-18 18:17:27.038,2,0,-1,0,-1,0,1,3
2025-05-18 18:17:27.048,2,0,-1,0,-1,0,1,3
2025-05-18 18:17:27.059,0,2,1,-2,-2,-1,-3,-8
2025-05-18 18:17:27.070,-6,-1,0,0,0,1,0,2
2025-05-18 18:17:27.081,-7,-3,-2,-1,0,1,-1,-1
2025-05-18 18:17:27.093,-17,-5,-1,0,-2,0,-2,-8
2025-05-18 18:17:27.103,-1,-6,1,0,1,0,1,1
2025-05-18 18:17:27.113,-1,-6,1,0,1,0,1,1
2025-05-18 18:17:27.124,14,3,-2,-1,-1,-1,0,3
2025-05-18 18:17:27.135,2,-2,-1,0,-1,-2,-2,0
2025-05-18 18:17:27.146,-2,0,-2,1,0,0,1,4
2025-05-18 18:17:27.156,-3,-2,0,-3,-2,-1,-2,-1
2025-05-18 18:17:27.167,-3,-2,0,-3,-2,-1,-2,-1
2025-05-18 18:17:27.178,0,-1,-2,-2,-3,-2,-1,0
2025-05-18 18:17:27.188,-1,1,-1,-1,-2,-2,0,-1
2025-05-18 18:17:27.200,-3,-3,0,-2,-1,0,-1,8
2025-05-18 18:17:27.209,-3,-3,0,-2,-1,0,-1,8
2025-05-18 18:17:27.219,-7,-7,0,-1,2,-1,0,-2
2025-05-18 18:17:27.232,-7,-7,0,-1,2,-1,0,-2
2025-05-18 18:17:27.242,14,2,-2,-1,-2,-3,-2,-1
2025-05-18 18:17:27.252,14,2,-2,-1,-2,-3,-2,-1
2025-05-18 18:17:27.264,-7,-1,-2,-1,0,-3,-1,-6
2025-05-18 18:17:27.275,-6,-1,-2,-1,-2,-1,-1,-1
2025-05-18 18:17:27.285,-6,-1,-2,-1,-2,-1,-1,-1
2025-05-18 18:17:27.295,2,-1,0,0,0,0,0,0
2025-05-18 18:17:27.307,-2,4,0,-1,0,0,-2,-4
2025-05-18 18:17:27.317,0,-1,1,-1,0,-3,-3,-3
2025-05-18 18:17:27.327,-3,1,1,1,-1,0,1,-4
2025-05-18 18:17:27.339,-2,-1,0,-1,-1,0,1,6
2025-05-18 18:17:27.349,-2,-1,0,-1,-1,0,1,6
2025-05-18 18:17:27.361,0,-1,0,-1,0,-1,2,-3
2025-05-18 18:17:27.373,0,-1,0,-1,0,-1,2,-3
2025-05-18 18:17:27.384,1,3,-1,0,-1,-1,1,2
2025-05-18 18:17:27.394,5,3,-1,-1,3,-1,-2,-1
2025-05-18 18:17:27.405,4,-1,-2,-3,-3,-1,-1,-3
2025-05-18 18:17:27.416,-3,1,-4,-3,-5,-5,-3,-2
2025-05-18 18:17:27.427,2,-2,0,-1,-2,-1,0,-3
2025-05-18 18:17:27.439,8,1,-1,0,-3,-1,-1,-1
2025-05-18 18:17:27.450,-4,-1,-2,-2,-3,0,-1,-3
2025-05-18 18:17:27.461,-5,-1,-2,-1,0,-3,0,-3
2025-05-18 18:17:27.472,-5,-1,-2,-1,0,-3,0,-3
2025-05-18 18:17:27.482,-2,1,-2,0,-2,1,-1,-1
2025-05-18 18:17:27.493,-2,1,-2,0,-2,1,-1,-1
2025-05-18 18:17:27.505,-1,-1,-1,-1,-1,0,0,0
2025-05-18 18:17:27.516,2,0,-1,3,5,1,-1,0
2025-05-18 18:17:27.527,-10,0,-3,-4,-3,-2,-3,-12
2025-05-18 18:17:27.537,-6,0,2,-1,-1,0,1,2
2025-05-18 18:17:27.549,-6,0,2,-1,-1,0,1,2
2025-05-18 18:17:27.560,1,4,1,-2,-2,-1,-1,-1
2025-05-18 18:17:27.571,1,4,1,-2,-2,-1,-1,-1
2025-05-18 18:17:27.583,-6,-2,-1,-1,0,-2,-3,-2
2025-05-18 18:17:27.594,-6,-2,-1,-1,0,-2,-3,-2
2025-05-18 18:17:27.605,2,0,0,0,-1,-1,-3,-2
2025-05-18 18:17:27.615,2,0,0,0,-1,-1,-3,-2
2025-05-18 18:17:27.627,3,-3,-1,-2,-1,0,0,1
2025-05-18 18:17:27.637,1,1,-2,0,1,0,-1,1
2025-05-18 18:17:27.647,-2,3,-1,0,-2,-3,0,-1
2025-05-18 18:17:27.659,4,-2,-1,-1,1,0,-1,2
2025-05-18 18:17:27.670,4,-2,-1,-1,1,0,-1,2
2025-05-18 18:17:27.680,-7,-1,-2,1,-1,-1,-1,-2
2025-05-18 18:17:27.691,-7,-1,-2,1,-1,-1,-1,-2
2025-05-18 18:17:27.703,0,0,0,0,-2,0,1,6
2025-05-18 18:17:27.714,0,0,0,0,-2,0,1,6
2025-05-18 18:17:27.725,9,-1,-1,-2,0,-1,0,1
2025-05-18 18:17:27.736,9,-1,-1,-2,0,-1,0,1
2025-05-18 18:17:27.747,-6,0,1,1,2,0,-2,-5
2025-05-18 18:17:27.759,-7,-5,-2,-2,-6,-2,-1,1
2025-05-18 18:17:27.769,2,0,0,0,1,1,0,1
2025-05-18 18:17:27.779,-3,2,0,-3,-2,0,0,-2
2025-05-18 18:17:27.791,-3,2,0,-3,-2,0,0,-2
2025-05-18 18:17:27.802,-9,-2,-1,-1,-2,0,-1,0
2025-05-18 18:17:27.812,-1,-2,-3,-1,1,-1,0,-1
2025-05-18 18:17:27.824,1,-6,0,0,-1,-1,-1,-1
2025-05-18 18:17:27.834,1,-6,0,0,-1,-1,-1,-1
2025-05-18 18:17:27.845,7,0,-2,-1,-1,0,0,2
2025-05-18 18:17:27.856,7,0,-2,-1,-1,0,0,2
2025-05-18 18:17:27.866,-5,-1,0,-1,-1,-2,-1,-14
2025-05-18 18:17:27.877,-4,0,-2,-1,-3,-2,-3,-5
2025-05-18 18:17:27.890,-7,-5,-2,-4,-2,-2,-1,1
2025-05-18 18:17:27.900,2,3,-1,-1,-5,1,0,2
2025-05-18 18:17:27.910,2,3,-1,-1,-5,1,0,2
2025-05-18 18:17:27.920,2,3,-2,-3,-1,0,1,0
2025-05-18 18:17:27.931,2,3,-2,-3,-1,0,1,0
2025-05-18 18:17:27.940,4,1,0,1,2,-1,-1,1
2025-05-18 18:17:27.952,4,1,0,1,2,-1,-1,1
2025-05-18 18:17:27.963,1,-1,-2,0,1,-1,1,0
2025-05-18 18:17:27.974,1,-1,-2,0,1,-1,1,0
2025-05-18 18:17:27.985,-5,-1,0,0,-1,-1,-2,-1
2025-05-18 18:17:27.997,1,-3,-1,0,0,-1,0,0
2025-05-18 18:17:28.008,-3,-1,-1,-2,-3,-1,0,-1
2025-05-18 18:17:28.020,3,-2,-1,1,-1,-1,-1,-2
2025-05-18 18:17:28.031,3,-2,-1,1,-1,-1,-1,-2
2025-05-18 18:17:28.041,1,-1,-1,-2,1,1,2,3
2025-05-18 18:17:28.051,-3,-5,-1,-2,-3,-3,-2,0
2025-05-18 18:17:28.061,-1,0,1,1,1,-1,-1,0
2025-05-18 18:17:28.072,-1,0,1,1,1,-1,-1,0
2025-05-18 18:17:28.083,0,-2,0,-1,0,-1,-2,-1
2025-05-18 18:17:28.095,0,-2,0,-1,0,-1,-2,-1
2025-05-18 18:17:28.107,0,-1,-1,-2,-2,0,0,1
2025-05-18 18:17:28.116,-10,-2,-3,1,2,-4,-2,-3
2025-05-18 18:17:28.128,-1,0,-2,-3,-1,0,1,1
2025-05-18 18:17:28.138,-5,-2,-1,-1,-1,-2,-1,-4
2025-05-18 18:17:28.149,-5,-2,-1,-1,-1,-2,-1,-4
2025-05-18 18:17:28.161,7,1,-1,1,-1,0,-1,2
2025-05-18 18:17:28.172,1,1,-2,-1,-2,-1,-1,0
2025-05-18 18:17:28.184,1,0,-2,-2,-1,-1,0,-1
2025-05-18 18:17:28.197,-3,-3,-2,-1,1,-1,-2,-2
2025-05-18 18:17:28.208,-3,-3,-2,-1,1,-1,-2,-2
2025-05-18 18:17:28.220,-16,-6,-2,0,-2,-2,-2,-14
2025-05-18 18:17:28.230,-16,-6,-2,0,-2,-2,-2,-14
2025-05-18 18:17:28.241,4,1,0,1,-1,-1,-2,1
2025-05-18 18:17:28.253,4,1,0,1,-1,-1,-2,1
2025-05-18 18:17:28.262,9,5,0,0,0,0,1,5
2025-05-18 18:17:28.274,9,5,0,0,0,0,1,5
2025-05-18 18:17:28.285,-3,-1,-1,-1,0,-1,1,2
2025-05-18 18:17:28.296,-3,-1,-1,-1,0,-1,1,2
2025-05-18 18:17:28.307,-4,-1,0,-1,-1,-2,-1,0
2025-05-18 18:17:28.317,3,-4,-3,-2,-1,-2,-2,-2
2025-05-18 18:17:28.329,5,1,-1,-2,-1,0,0,9
2025-05-18 18:17:28.340,-1,0,0,-2,1,1,0,-3
2025-05-18 18:17:28.351,-1,0,0,-2,1,1,0,-3
2025-05-18 18:17:28.363,-5,0,1,1,1,2,2,-3
2025-05-18 18:17:28.372,-5,0,1,1,1,2,2,-3
2025-05-18 18:17:28.384,-1,-11,-1,-2,-1,-2,-2,-2
2025-05-18 18:17:28.394,-1,-11,-1,-2,-1,-2,-2,-2
2025-05-18 18:17:28.404,-1,2,-4,-3,-6,-2,-2,-3
2025-05-18 18:17:28.415,-1,2,-4,-3,-6,-2,-2,-3
2025-05-18 18:17:28.427,-6,2,1,-1,-1,0,0,-1
2025-05-18 18:17:28.437,8,-2,-3,-4,-1,-2,-2,-1
2025-05-18 18:17:28.447,0,0,0,1,-2,-1,-2,-3
2025-05-18 18:17:28.459,3,-2,-1,0,-1,-1,1,3
2025-05-18 18:17:28.469,3,-2,-1,0,-1,-1,1,3
2025-05-18 18:17:28.481,-1,-3,-3,-1,-2,-3,-2,1
2025-05-18 18:17:28.492,5,3,-1,-1,0,1,-2,6
2025-05-18 18:17:28.502,-2,-4,-1,0,1,-2,0,-2
2025-05-18 18:17:28.514,-2,-4,-1,0,1,-2,0,-2
2025-05-18 18:17:28.525,4,-3,-2,1,-1,0,2,0
2025-05-18 18:17:28.536,4,-3,-2,1,-1,0,2,0
2025-05-18 18:17:28.545,-5,-1,1,0,0,-1,1,1
2025-05-18 18:17:28.557,-2,-1,1,0,-3,-2,-3,6
2025-05-18 18:17:28.569,-3,-2,0,-2,-1,1,-2,-4
2025-05-18 18:17:28.580,0,-4,-1,0,-1,0,0,-1
2025-05-18 18:17:28.591,0,-4,-1,0,-1,0,0,-1
2025-05-18 18:17:28.602,4,2,-2,0,0,-1,-1,-2
2025-05-18 18:17:28.613,4,2,-2,0,0,-1,-1,-2
2025-05-18 18:17:28.623,2,-2,1,1,1,1,-2,3
2025-05-18 18:17:28.633,2,-2,1,1,1,1,-2,3
2025-05-18 18:17:28.644,2,0,-2,-2,-1,-1,-1,1
2025-05-18 18:17:28.655,2,0,-2,-2,-1,-1,-1,1
2025-05-18 18:17:28.664,-1,0,-1,-2,-1,-2,-1,-1
2025-05-18 18:17:28.676,-11,-8,-4,-3,-2,-1,-2,-5
2025-05-18 18:17:28.687,-12,-2,-1,-1,-2,-1,-3,-8
2025-05-18 18:17:28.697,-12,-2,-1,-1,-2,-1,-3,-8
2025-05-18 18:17:28.708,1,-2,0,-1,0,-2,-1,0
2025-05-18 18:17:28.720,1,-2,0,-1,0,-2,-1,0
2025-05-18 18:17:28.730,3,2,1,0,-1,0,-1,1
2025-05-18 18:17:28.741,2,0,0,-1,1,-3,-3,-1
2025-05-18 18:17:28.752,5,-1,-1,-2,-1,0,0,3
2025-05-18 18:17:28.763,-7,-6,-2,-1,-2,-1,-3,-5
2025-05-18 18:17:28.773,-7,-6,-2,-1,-2,-1,-3,-5
2025-05-18 18:17:28.784,-1,-3,-2,0,1,1,2,1
2025-05-18 18:17:28.795,2,0,-1,-1,-1,-1,-2,-2
2025-05-18 18:17:28.806,7,1,-1,2,1,-1,-1,11
2025-05-18 18:17:28.818,6,-2,-2,-3,-3,-3,-3,-2
2025-05-18 18:17:28.829,-12,-1,0,-1,0,1,0,-2
2025-05-18 18:17:28.840,-7,-5,-5,-1,-4,0,-1,-2
2025-05-18 18:17:28.852,-3,-3,0,-1,-1,0,-2,-2
2025-05-18 18:17:28.862,-3,0,-1,0,0,-3,-2,-2
2025-05-18 18:17:28.871,3,-1,-1,1,-3,-2,-2,-4
2025-05-18 18:17:28.884,1,0,-1,0,1,0,0,-2
2025-05-18 18:17:28.894,1,0,-1,0,1,0,0,-2
2025-05-18 18:17:28.906,3,0,2,0,1,-1,0,1
2025-05-18 18:17:28.915,1,2,0,0,2,-1,-1,-1
2025-05-18 18:17:28.927,5,-2,-1,1,-1,0,0,2
2025-05-18 18:17:28.937,-8,1,1,-2,-1,-1,0,5
2025-05-18 18:17:28.947,1,2,-2,-1,-1,-2,0,-2
2025-05-18 18:17:28.959,1,2,-2,-1,-1,-2,0,-2
2025-05-18 18:17:28.970,-7,-4,-1,-2,0,-2,-2,-2
2025-05-18 18:17:28.980,3,3,0,-1,-2,-4,0,0
2025-05-18 18:17:28.992,-1,-1,-5,-5,-4,-1,-1,-9
2025-05-18 18:17:29.004,-2,-6,-1,-3,0,-1,0,3
2025-05-18 18:17:29.015,-2,-6,-1,-3,0,-1,0,3
2025-05-18 18:17:29.025,-1,4,1,0,0,-2,-2,0
2025-05-18 18:17:29.036,20,-1,-1,-2,-4,-2,-3,-3
2025-05-18 18:17:29.046,7,-9,0,1,-1,2,-1,-1
2025-05-18 18:17:29.056,7,-9,0,1,-1,2,-1,-1
2025-05-18 18:17:29.067,3,5,1,0,-1,1,0,1
2025-05-18 18:17:29.078,3,5,1,0,-1,1,0,1
2025-05-18 18:17:29.091,-10,-2,-1,0,0,0,1,-1
2025-05-18 18:17:29.102,-3,0,-3,-2,-3,-2,-1,-6
2025-05-18 18:17:29.113,1,-1,1,2,1,-1,-2,-8
2025-05-18 18:17:29.124,1,-4,-1,-2,-1,2,-1,5
2025-05-18 18:17:29.134,1,-4,-1,-2,-1,2,-1,5
2025-05-18 18:17:29.145,6,6,1,-1,1,-1,-1,3
2025-05-18 18:17:29.156,6,6,1,-1,1,-1,-1,3
2025-05-18 18:17:29.169,1,-12,-3,1,-1,0,-1,-1
2025-05-18 18:17:29.179,2,4,0,-2,-2,-2,0,-2
2025-05-18 18:17:29.189,-5,-2,-2,-1,-3,-1,2,1
2025-05-18 18:17:29.200,-5,-2,-2,-1,-3,-1,2,1
2025-05-18 18:17:29.211,0,-1,-1,0,-1,-1,-1,2
2025-05-18 18:17:29.221,0,-1,-1,0,-1,-1,-1,2
2025-05-18 18:17:29.232,0,4,-2,0,0,-2,-3,0
2025-05-18 18:17:29.242,7,4,1,0,-2,0,0,6
2025-05-18 18:17:29.253,7,4,1,0,-2,0,0,6
2025-05-18 18:17:29.265,-3,-2,-1,-2,-1,-2,0,0
2025-05-18 18:17:29.275,-3,-2,-1,-2,-1,-2,0,0
2025-05-18 18:17:29.287,-2,-1,1,-2,-1,-1,-2,-2
2025-05-18 18:17:29.297,-6,-1,-1,1,-1,-2,0,-3
2025-05-18 18:17:29.308,3,1,0,-2,-3,1,-3,-2
2025-05-18 18:17:29.320,3,1,0,-2,-3,1,-3,-2
2025-05-18 18:17:29.331,-6,-2,-1,0,-2,0,-2,-2
2025-05-18 18:17:29.341,-6,-2,-1,0,-2,0,-2,-2
2025-05-18 18:17:29.352,-6,-1,-3,-1,-2,-2,0,-1
2025-05-18 18:17:29.362,3,-1,-2,-2,-1,-1,0,0
2025-05-18 18:17:29.373,3,-1,1,1,2,-1,-1,1
2025-05-18 18:17:29.385,-1,-5,0,0,-1,-1,0,2
2025-05-18 18:17:29.395,-1,-5,0,0,-1,-1,0,2
2025-05-18 18:17:29.407,0,-2,1,-3,-1,0,-1,-2
2025-05-18 18:17:29.419,6,2,-1,-3,-3,-3,-2,0
2025-05-18 18:17:29.429,7,0,-1,1,3,1,1,4
2025-05-18 18:17:29.441,-7,-1,-1,-1,1,-1,-1,1
2025-05-18 18:17:29.452,1,-4,-1,0,-2,-1,-2,2
2025-05-18 18:17:29.463,-4,9,-4,-1,-2,-3,0,-3
2025-05-18 18:17:29.473,3,-2,1,1,1,0,0,-3
2025-05-18 18:17:29.485,-9,-7,-3,-1,-2,-1,-3,-2
2025-05-18 18:17:29.494,-9,-7,-3,-1,-2,-1,-3,-2
2025-05-18 18:17:29.507,2,1,-3,-1,-1,-2,-2,-4
2025-05-18 18:17:29.517,2,1,-3,-1,-1,-2,-2,-4
2025-05-18 18:17:29.529,-10,-3,-1,0,-1,1,-2,0
2025-05-18 18:17:29.540,-6,0,-1,-2,-1,-1,0,3
2025-05-18 18:17:29.551,6,-2,-1,1,2,0,-3,-4
2025-05-18 18:17:29.562,4,6,-1,-1,1,0,0,4
2025-05-18 18:17:29.574,4,6,-1,-1,1,0,0,4
2025-05-18 18:17:29.585,-11,-5,0,-1,-1,-2,-2,-5
2025-05-18 18:17:29.596,-11,-5,0,-1,-1,-2,-2,-5
2025-05-18 18:17:29.607,-2,-1,1,-2,-1,0,-3,-1
2025-05-18 18:17:29.619,-2,-1,1,-2,-1,0,-3,-1
2025-05-18 18:17:29.630,10,0,2,-1,-1,0,0,-1
2025-05-18 18:17:29.642,10,0,2,-1,-1,0,0,-1
2025-05-18 18:17:29.652,13,-1,-2,0,-1,-1,-1,6
2025-05-18 18:17:29.662,-2,1,-1,-1,-2,-1,-1,-1
2025-05-18 18:17:29.673,1,-5,-1,0,3,0,0,4
2025-05-18 18:17:29.684,-11,-7,-2,0,-2,0,-3,-3
2025-05-18 18:17:29.696,-11,-7,-2,0,-2,0,-3,-3
2025-05-18 18:17:29.706,-5,0,-1,0,-1,0,0,0
2025-05-18 18:17:29.717,1,-5,-2,0,-1,-1,1,1
2025-05-18 18:17:29.729,0,2,-2,0,0,-1,-2,-2
2025-05-18 18:17:29.739,0,2,-2,0,0,-1,-2,-2
2025-05-18 18:17:29.750,-10,-3,1,-2,-2,-1,1,-2
2025-05-18 18:17:29.762,-10,-3,1,-2,-2,-1,1,-2
2025-05-18 18:17:29.772,2,-2,-1,-3,-3,1,0,1
2025-05-18 18:17:29.784,-11,0,-1,-1,-1,-2,-1,-1
2025-05-18 18:17:29.794,-1,-2,-2,-1,0,0,0,0
2025-05-18 18:17:29.805,10,3,-2,-1,-2,-2,-4,2
2025-05-18 18:17:29.816,10,3,-2,-1,-2,-2,-4,2
2025-05-18 18:17:29.828,5,-1,2,1,0,0,0,-1
2025-05-18 18:17:29.838,-3,4,-2,-2,-5,-1,0,-3
2025-05-18 18:17:29.849,-13,-2,-1,0,0,1,-1,0
2025-05-18 18:17:29.861,-2,2,0,0,-1,-1,1,1
2025-05-18 18:17:29.872,-8,-5,0,-2,-2,-2,-3,-5
2025-05-18 18:17:29.883,-4,-2,-3,-2,-1,-2,-1,-2
2025-05-18 18:17:29.893,0,6,0,0,-2,0,-3,-3
2025-05-18 18:17:29.904,-8,-4,0,1,2,-1,0,-5
2025-05-18 18:17:29.916,7,-4,-2,-2,-4,-2,-3,-5
2025-05-18 18:17:29.926,2,-4,-1,-1,-2,-1,2,2
2025-05-18 18:17:29.936,2,-4,-1,-1,-2,-1,2,2
2025-05-18 18:17:29.947,-4,-6,-3,0,1,0,-2,-1
2025-05-18 18:17:29.957,5,2,1,-1,0,-2,-2,-1
2025-05-18 18:17:29.968,1,-3,-1,0,1,-1,0,4
2025-05-18 18:17:29.979,1,-3,-1,0,1,-1,0,4
2025-05-18 18:17:29.989,-5,3,1,-2,-3,0,0,2
2025-05-18 18:17:30.000,-5,3,1,-2,-3,0,0,2
2025-05-18 18:17:30.011,0,-1,-3,-2,-1,-1,-1,-1
2025-05-18 18:17:30.021,3,-1,1,0,-1,-1,1,1
2025-05-18 18:17:30.033,5,-2,1,0,-1,-1,-1,2
2025-05-18 18:17:30.044,-13,-2,0,-1,0,0,-1,-3
2025-05-18 18:17:30.055,-13,-2,0,-1,0,0,-1,-3
2025-05-18 18:17:30.066,5,2,-3,-1,0,-1,-1,3
2025-05-18 18:17:30.077,5,2,-3,-1,0,-1,-1,3
2025-05-18 18:17:30.088,3,-9,1,5,1,-1,-3,4
2025-05-18 18:17:30.099,3,-9,1,5,1,-1,-3,4
2025-05-18 18:17:30.110,3,1,0,1,1,-2,-2,0
2025-05-18 18:17:30.121,3,1,0,1,1,-2,-2,0
2025-05-18 18:17:30.131,-3,-1,0,-2,0,-1,-3,-2
2025-05-18 18:17:30.142,-3,-1,0,-2,0,-1,-3,-2
2025-05-18 18:17:30.152,5,-4,-2,-2,0,0,0,2
2025-05-18 18:17:30.162,3,-3,-1,-1,-3,-2,-2,-2
2025-05-18 18:17:30.173,3,-3,-1,-1,-3,-2,-2,-2
2025-05-18 18:17:30.184,-9,-3,-1,-1,-2,-2,-1,-3
2025-05-18 18:17:30.195,-9,-3,-1,-1,-2,-2,-1,-3
2025-05-18 18:17:30.207,1,1,0,0,1,-1,-1,1
2025-05-18 18:17:30.217,1,1,0,0,1,-1,-1,1
2025-05-18 18:17:30.228,2,-9,-1,-2,1,0,-2,2
2025-05-18 18:17:30.239,2,-9,-1,-2,1,0,-2,2
2025-05-18 18:17:30.250,2,0,0,-2,-2,-2,-3,-2
2025-05-18 18:17:30.261,2,0,0,-2,-2,-2,-3,-2
2025-05-18 18:17:30.271,-2,2,-1,-2,0,1,-1,-1
2025-05-18 18:17:30.281,-4,1,0,-2,-1,-3,0,0
2025-05-18 18:17:30.293,5,3,-2,-1,-2,0,-2,1
2025-05-18 18:17:30.303,-4,1,1,0,0,-2,0,-1
2025-05-18 18:17:30.314,-11,-5,-2,-1,-1,-1,-1,-5
2025-05-18 18:17:30.326,-2,1,-1,-1,-1,-1,0,-2
2025-05-18 18:17:30.337,-3,-4,0,1,-1,-1,-3,0
2025-05-18 18:17:30.349,2,-2,-2,-1,-1,-2,0,-3
2025-05-18 18:17:30.359,2,-2,-2,-1,-1,-2,0,-3
2025-05-18 18:17:30.371,2,-5,-2,-3,-1,0,-1,6
2025-05-18 18:17:30.381,2,-5,-2,-3,-1,0,-1,6
2025-05-18 18:17:30.392,6,1,-1,0,0,0,-2,4
2025-05-18 18:17:30.403,-6,-1,-1,0,0,-1,0,-1
2025-05-18 18:17:30.414,-3,-3,-2,0,0,-2,-1,1
2025-05-18 18:17:30.425,3,-2,1,0,-5,1,2,3
2025-05-18 18:17:30.435,3,-2,1,0,-5,1,2,3
2025-05-18 18:17:30.446,0,2,-3,-3,-2,-2,-2,-3
2025-05-18 18:17:30.459,4,2,0,-1,-1,-2,-1,0
2025-05-18 18:17:30.470,-1,-2,-2,-2,1,0,-2,-1
2025-05-18 18:17:30.482,-1,-2,-2,-2,1,0,-2,-1
2025-05-18 18:17:30.493,4,3,-1,0,4,-3,-1,-2
2025-05-18 18:17:30.504,4,3,-1,0,4,-3,-1,-2
2025-05-18 18:17:30.514,-5,2,-3,0,-1,-1,-3,-3
2025-05-18 18:17:30.526,3,-1,1,0,0,-1,-1,1
2025-05-18 18:17:30.537,-1,-7,1,1,-2,-1,-1,3
2025-05-18 18:17:30.549,7,-1,-3,-4,0,-2,-1,0
2025-05-18 18:17:30.559,7,-1,-3,-4,0,-2,-1,0
2025-05-18 18:17:30.570,-6,-3,1,-2,-3,2,-2,-3
2025-05-18 18:17:30.582,2,0,-1,0,1,-1,0,0
2025-05-18 18:17:30.593,-1,-6,-2,-1,-2,-1,-2,0
2025-05-18 18:17:30.605,1,2,-2,-1,-1,-2,1,1
2025-05-18 18:17:30.616,1,2,-2,-1,-1,-2,1,1
2025-05-18 18:17:30.627,9,5,-1,0,0,0,-3,-2
2025-05-18 18:17:30.637,9,5,-1,0,0,0,-3,-2
2025-05-18 18:17:30.649,-1,2,-2,-1,4,-1,-1,1
2025-05-18 18:17:30.661,-1,2,-2,-1,4,-1,-1,1
2025-05-18 18:17:30.672,-5,-2,0,0,-1,0,-1,-1
2025-05-18 18:17:30.682,-5,-2,0,0,-1,0,-1,-1
2025-05-18 18:17:30.693,6,0,1,-1,-2,0,-1,1
2025-05-18 18:17:30.704,3,1,-1,-1,-1,-2,0,1
2025-05-18 18:17:30.715,-5,-5,1,-1,-1,0,-1,0
2025-05-18 18:17:30.726,-5,-5,-4,-1,2,-5,-2,0
2025-05-18 18:17:30.736,-5,-5,-4,-1,2,-5,-2,0
2025-05-18 18:17:30.747,-5,-2,-2,-3,-2,-3,-4,-5
2025-05-18 18:17:30.760,-7,-3,0,-1,0,-1,0,-2
2025-05-18 18:17:30.772,0,0,0,-1,-1,1,-1,-4
2025-05-18 18:17:30.783,-7,-2,-2,-1,-3,-1,-1,-2
2025-05-18 18:17:30.795,-5,-3,1,-1,-1,-1,-2,2
2025-05-18 18:17:30.806,9,-4,-3,0,-2,-1,-2,-1
2025-05-18 18:17:30.817,9,-4,-3,0,-2,-1,-2,-1
2025-05-18 18:17:30.828,18,3,-2,0,-3,1,0,5
2025-05-18 18:17:30.840,18,3,-2,0,-3,1,0,5
2025-05-18 18:17:30.852,-2,-5,0,0,-1,1,-2,-2
2025-05-18 18:17:30.863,-2,-5,0,0,-1,1,-2,-2
2025-05-18 18:17:30.874,-3,-2,0,-1,0,1,-2,0
2025-05-18 18:17:30.884,9,-3,-1,-1,-3,-1,0,-1
2025-05-18 18:17:30.895,-6,0,-1,0,-1,-3,-3,-4
2025-05-18 18:17:30.905,8,1,1,0,-3,1,2,8
2025-05-18 18:17:30.915,8,1,1,0,-3,1,2,8
2025-05-18 18:17:30.927,0,0,-1,0,0,-1,-1,-3
2025-05-18 18:17:30.937,0,0,-1,0,0,-1,-1,-3
2025-05-18 18:17:30.948,-6,0,1,0,0,-1,0,1
2025-05-18 18:17:30.958,-6,0,1,0,0,-1,0,1
2025-05-18 18:17:30.968,-1,-7,-2,1,0,0,-2,-2
2025-05-18 18:17:30.980,-1,-7,-2,1,0,0,-2,-2
2025-05-18 18:17:30.991,-7,-3,-2,0,2,-2,0,7
2025-05-18 18:17:31.002,-5,-6,-2,-2,-1,-1,0,0
2025-05-18 18:17:31.013,1,-5,2,1,2,-1,-3,4
2025-05-18 18:17:31.025,-12,-1,1,0,-1,0,-1,-3
2025-05-18 18:17:31.035,-12,-1,1,0,-1,0,-1,-3
2025-05-18 18:17:31.046,-5,6,-1,0,1,-1,-3,-5
2025-05-18 18:17:31.058,-5,6,-1,0,1,-1,-3,-5
2025-05-18 18:17:31.068,-7,1,0,1,3,0,0,0
2025-05-18 18:17:31.079,2,-8,-3,-2,-1,0,-1,-3
2025-05-18 18:17:31.088,2,-7,-2,-1,-2,0,-2,-4
2025-05-18 18:17:31.101,2,-7,-2,-1,-2,0,-2,-4
2025-05-18 18:17:31.111,17,14,2,-2,0,0,1,7
2025-05-18 18:17:31.123,17,14,2,-2,0,0,1,7
2025-05-18 18:17:31.133,-3,-1,0,-2,-3,-1,-1,1
2025-05-18 18:17:31.144,3,-1,-3,-2,-2,0,-3,-2
2025-05-18 18:17:31.156,3,-1,-3,-2,-2,0,-3,-2
2025-05-18 18:17:31.166,1,2,-2,-1,-1,0,-1,-1
2025-05-18 18:17:31.177,-5,-5,-1,-1,-1,-1,-2,-1
2025-05-18 18:17:31.188,1,6,0,0,1,1,-1,1
2025-05-18 18:17:31.199,-3,-2,-1,0,-2,-3,-3,-3
2025-05-18 18:17:31.213,-2,-7,-4,-1,-2,0,-2,-1
2025-05-18 18:17:31.224,-2,-7,-4,-1,-2,0,-2,-1
2025-05-18 18:17:31.234,-1,3,-2,-1,-2,-1,-3,0
2025-05-18 18:17:31.244,-1,3,-2,-1,-2,-1,-3,0
2025-05-18 18:17:31.256,-6,-2,-1,0,-1,-1,-2,-1
2025-05-18 18:17:31.267,-25,-6,-3,-3,-2,-2,-2,-11
2025-05-18 18:17:31.277,4,4,-2,-1,-1,-1,1,3
2025-05-18 18:17:31.287,-4,-4,0,0,-4,0,-1,-1
2025-05-18 18:17:31.298,-4,-4,0,0,-4,0,-1,-1
2025-05-18 18:17:31.311,-4,-6,1,3,-1,-1,-3,2
2025-05-18 18:17:31.320,-4,-6,1,3,-1,-1,-3,2
2025-05-18 18:17:31.333,2,-3,-4,-2,1,-2,0,2
2025-05-18 18:17:31.343,2,-3,-4,-2,1,-2,0,2
2025-05-18 18:17:31.353,4,1,-2,-2,-1,0,-1,-1
2025-05-18 18:17:31.364,4,1,-2,-2,-1,0,-1,-1
2025-05-18 18:17:31.374,-17,-5,-2,-3,-1,-3,-1,39
2025-05-18 18:17:31.385,0,0,1,0,0,1,0,0
2025-05-18 18:17:31.395,12,0,-2,-1,-1,1,-2,-3
2025-05-18 18:17:31.406,-1,3,0,-2,-1,-2,0,0
2025-05-18 18:17:31.416,1,-5,0,-2,-2,1,0,-8
2025-05-18 18:17:31.428,10,3,-2,0,-5,0,-1,-16
2025-05-18 18:17:31.439,-7,1,-4,-1,-1,-2,-1,-9
2025-05-18 18:17:31.450,6,1,-1,-1,-1,-1,-2,-6
2025-05-18 18:17:31.461,6,1,-1,-1,-1,-1,-2,-6
2025-05-18 18:17:31.471,3,-3,0,2,1,-1,1,-5
2025-05-18 18:17:31.483,3,-3,0,2,1,-1,1,-5
2025-05-18 18:17:31.494,-1,-4,1,-1,-1,-1,-2,-10
2025-05-18 18:17:31.505,-2,-1,-2,-1,0,0,1,7
2025-05-18 18:18:30.894,3,0,-1,-1,-4,0,1,3
2025-05-18 18:18:30.906,3,0,-1,-1,-4,0,1,3
2025-05-18 18:18:30.916,4,-2,-2,-1,0,-1,-3,-2
2025-05-18 18:18:30.927,0,-5,-2,0,0,-1,0,-1
2025-05-18 18:18:30.938,-2,0,-2,-3,-2,-2,-1,-2
2025-05-18 18:18:30.949,-10,-29,-7,-3,0,-1,-1,-2
2025-05-18 18:18:30.959,-10,-29,-7,-3,0,-1,-1,-2
2025-05-18 18:18:30.969,-5,5,3,1,2,1,0,0
2025-05-18 18:18:30.981,-5,5,3,1,2,1,0,0
2025-05-18 18:18:30.992,5,1,1,0,1,0,0,3
2025-05-18 18:18:31.002,5,1,1,0,1,0,0,3
2025-05-18 18:18:31.013,-4,5,1,-1,-2,-1,-5,-6
2025-05-18 18:18:31.024,-4,5,1,-1,-2,-1,-5,-6
2025-05-18 18:18:31.035,2,0,0,1,0,-1,-2,3
2025-05-18 18:18:31.047,-10,-3,-3,-3,-3,-4,0,-5
2025-05-18 18:18:31.058,11,8,0,1,2,2,-1,2
2025-05-18 18:18:31.069,1,6,0,-1,0,-2,-3,-2
2025-05-18 18:18:31.080,1,6,0,-1,0,-2,-3,-2
2025-05-18 18:18:31.091,-7,-2,-1,-1,0,0,-2,-2
2025-05-18 18:18:31.102,4,1,1,0,-1,-1,1,-1
2025-05-18 18:18:31.113,0,-2,-1,0,-1,1,-1,3
2025-05-18 18:18:31.124,1,-1,3,2,0,-1,0,3
2025-05-18 18:18:31.135,1,-6,-2,-1,-3,-1,-1,-1
2025-05-18 18:18:31.146,1,-6,-2,-1,-3,-1,-1,-1
2025-05-18 18:18:31.156,-4,-6,0,1,0,0,-1,-1
2025-05-18 18:18:31.167,-7,0,-1,-1,0,1,2,-3
2025-05-18 18:18:31.178,-6,-21,-4,-3,-3,-2,-2,-3
2025-05-18 18:18:31.190,6,6,0,-1,-1,-1,-1,2
2025-05-18 18:18:31.200,6,6,0,-1,-1,-1,-1,2
2025-05-18 18:18:31.211,-7,0,-2,-2,-3,-3,-3,0
2025-05-18 18:18:31.221,-1,1,-3,-1,-3,-2,0,-2
2025-05-18 18:18:31.233,0,1,-1,-1,-1,0,-1,1
2025-05-18 18:18:31.244,-2,9,1,-1,-1,0,0,0
2025-05-18 18:18:31.255,-4,-13,-3,-1,-3,-1,-4,-5
2025-05-18 18:18:31.266,-4,-13,-3,-1,-3,-1,-4,-5
2025-05-18 18:18:31.276,0,4,1,0,0,0,-2,-1
2025-05-18 18:18:31.286,0,4,1,0,0,0,-2,-1
2025-05-18 18:18:31.297,8,4,-1,-1,-2,0,0,2
2025-05-18 18:18:31.309,1,4,0,0,0,-1,-1,1
2025-05-18 18:18:31.320,1,4,0,0,0,-1,-1,1
2025-05-18 18:18:31.330,1,3,1,0,0,-1,-1,3
2025-05-18 18:18:31.341,1,3,1,0,0,-1,-1,3
2025-05-18 18:18:31.353,-3,-1,1,-1,-3,0,-1,-1
2025-05-18 18:18:31.363,-5,5,2,0,-2,-1,-1,-2
2025-05-18 18:18:31.374,-3,-7,-2,-2,0,-1,-2,-1
2025-05-18 18:18:31.386,-3,-7,-2,-2,0,-1,-2,-1
2025-05-18 18:18:31.396,4,-3,-2,0,0,0,0,0
2025-05-18 18:18:31.407,4,-3,-2,0,0,0,0,0
2025-05-18 18:18:31.417,-2,0,0,0,2,1,-1,-1
2025-05-18 18:18:31.428,1,-4,-1,-1,1,0,0,0
2025-05-18 18:18:31.437,1,-4,-1,-1,1,0,0,0
2025-05-18 18:18:31.449,19,-3,-2,-1,3,-1,-3,3
2025-05-18 18:18:31.460,19,-3,-2,-1,3,-1,-3,3
2025-05-18 18:18:31.472,-10,-6,1,0,-1,-1,-1,-2
2025-05-18 18:18:31.483,-10,-6,1,0,-1,-1,-1,-2
2025-05-18 18:18:31.493,7,16,1,1,0,0,-2,4
2025-05-18 18:18:31.504,7,16,1,1,0,0,-2,4
2025-05-18 18:18:31.513,-2,-2,0,2,0,-1,-1,0
2025-05-18 18:18:31.525,-2,-2,0,2,0,-1,-1,0
2025-05-18 18:18:31.536,-3,-7,-3,-2,2,2,2,-1
2025-05-18 18:18:31.547,7,-4,-3,-1,-4,-2,-1,0
2025-05-18 18:18:31.559,7,-4,-3,-1,-4,-2,-1,0
2025-05-18 18:18:31.569,-7,-2,-2,0,0,1,-1,0
2025-05-18 18:18:31.581,-7,-2,-2,0,0,1,-1,0
2025-05-18 18:18:31.591,-2,-2,2,1,4,-1,-1,0
2025-05-18 18:18:31.602,-2,-2,2,1,4,-1,-1,0
2025-05-18 18:18:31.613,0,2,-2,-1,-2,-1,-2,-3
2025-05-18 18:18:31.624,0,2,-2,-1,-2,-1,-2,-3
2025-05-18 18:18:31.635,2,3,-1,-1,-3,-2,-2,-1
2025-05-18 18:18:31.646,2,3,-1,-1,-3,-2,-2,-1
2025-05-18 18:18:31.657,1,-4,0,-1,-1,-1,-1,0
2025-05-18 18:18:31.667,-1,7,0,0,-3,-1,-2,-1
2025-05-18 18:18:31.679,-1,7,0,0,-3,-1,-2,-1
2025-05-18 18:18:31.690,-3,-7,-3,0,1,0,-1,-1
2025-05-18 18:18:31.700,-3,-7,-3,0,1,0,-1,-1
2025-05-18 18:18:31.711,5,-5,-1,-1,-3,0,-2,2
2025-05-18 18:18:31.721,5,-5,-1,-1,-3,0,-2,2
2025-05-18 18:18:31.732,0,0,-2,-2,-1,-1,-2,2
2025-05-18 18:18:31.743,0,0,-2,-2,-1,-1,-2,2
2025-05-18 18:18:31.754,-5,-5,1,0,-1,0,-3,-3
2025-05-18 18:18:31.765,-5,-5,1,0,-1,0,-3,-3
2025-05-18 18:18:31.775,-1,-1,-1,0,0,1,0,0
2025-05-18 18:18:31.787,-5,-3,-2,-1,-3,0,0,-1
2025-05-18 18:18:31.797,-5,-3,-2,-1,-3,0,0,-1
2025-05-18 18:18:31.811,-2,1,0,0,0,-1,-2,1
2025-05-18 18:18:31.821,-2,1,0,0,0,-1,-2,1
2025-05-18 18:18:31.831,2,-4,0,-2,0,0,0,5
2025-05-18 18:18:31.842,2,-2,2,0,1,0,0,1
2025-05-18 18:18:31.852,0,-3,-1,-2,-1,-1,-2,0
2025-05-18 18:18:31.864,0,-3,-1,-2,-1,-1,-2,0
2025-05-18 18:18:31.876,-4,-1,-1,1,1,0,-2,-3
2025-05-18 18:18:31.886,-4,-1,-1,1,1,0,-2,-3
2025-05-18 18:18:31.897,5,-4,-1,-1,0,-1,-1,1
2025-05-18 18:18:31.908,-1,1,-1,-2,-1,-3,0,0
2025-05-18 18:18:31.919,2,-5,-3,1,-1,0,0,-2
2025-05-18 18:18:31.929,-4,-5,-1,0,-1,1,-2,1
2025-05-18 18:18:31.941,-4,-5,-1,0,-1,1,-2,1
2025-05-18 18:18:31.951,2,1,-1,-2,-4,0,1,0
2025-05-18 18:18:31.963,4,1,-2,-2,-1,0,-1,2
2025-05-18 18:18:31.973,1,0,-1,1,-2,-2,-3,-1
2025-05-18 18:18:31.985,1,0,-1,1,-2,-2,-3,-1
2025-05-18 18:18:31.995,-3,-1,1,1,-1,-1,-4,-3
2025-05-18 18:18:32.007,-3,-1,1,1,-1,-1,-4,-3
2025-05-18 18:18:32.017,1,-3,1,0,-1,0,-1,3
2025-05-18 18:18:32.028,-1,0,-1,-2,1,0,0,0
2025-05-18 18:18:32.039,-1,0,-3,-2,-1,-2,-2,1
2025-05-18 18:18:32.051,2,-3,0,0,0,-2,-1,1
2025-05-18 18:18:32.062,2,-3,0,0,0,-2,-1,1
2025-05-18 18:18:32.073,0,-1,-2,-2,-1,-1,-2,0
2025-05-18 18:18:32.084,-2,0,1,0,-2,-1,0,-2
2025-05-18 18:18:32.095,-1,2,-1,0,-2,0,-3,-1
2025-05-18 18:18:32.107,-1,2,-1,0,-2,0,-3,-1
2025-05-18 18:18:32.118,-4,-4,-3,-2,-1,1,-3,-5
2025-05-18 18:18:32.128,-4,-4,-3,-2,-1,1,-3,-5
2025-05-18 18:18:32.140,0,-4,-2,1,-2,0,-1,0
2025-05-18 18:18:32.151,8,7,-2,-2,0,-2,-1,0
2025-05-18 18:18:32.162,4,1,-2,0,-1,-1,-2,-1
2025-05-18 18:18:32.173,4,-4,-3,-2,-1,-1,-1,6
2025-05-18 18:18:32.184,4,-4,-3,-2,-1,-1,-1,6
2025-05-18 18:18:32.195,-7,1,0,-1,1,-1,-2,-1
2025-05-18 18:18:32.206,-7,1,0,-1,1,-1,-2,-1
2025-05-18 18:18:32.217,-2,-1,-2,-4,1,-2,-2,0
2025-05-18 18:18:32.229,0,1,-2,-2,0,-3,0,-1
2025-05-18 18:18:32.238,-2,-8,0,0,1,2,-3,-3
2025-05-18 18:18:32.251,-9,-1,0,-2,-2,-2,-2,-7
2025-05-18 18:18:32.263,5,-1,1,-1,-2,-1,1,2
2025-05-18 18:18:32.274,-2,-3,-2,-2,-2,-1,0,4
2025-05-18 18:18:32.285,-2,-3,-2,-2,-2,-1,0,4
2025-05-18 18:18:32.296,1,0,1,0,0,1,-2,-1
2025-05-18 18:18:32.307,1,0,1,0,0,1,-2,-1
2025-05-18 18:18:32.317,-8,6,-1,2,-1,-2,-2,-5
2025-05-18 18:18:32.329,-8,6,-1,2,-1,-2,-2,-5
2025-05-18 18:18:32.341,16,6,-1,1,0,-2,-1,-1
2025-05-18 18:18:32.354,-9,0,0,2,1,1,-1,-1
2025-05-18 18:18:32.364,-9,0,0,2,1,1,-1,-1
2025-05-18 18:18:32.374,-5,-4,0,-1,-1,0,0,6
2025-05-18 18:18:32.385,-5,-4,0,-1,-1,0,0,6
2025-05-18 18:18:32.396,2,-6,-2,0,0,-1,-3,-5
2025-05-18 18:18:32.407,-9,-1,-2,-1,0,-2,-1,-9
2025-05-18 18:18:32.418,-6,-4,0,0,1,0,1,36
2025-05-18 18:18:32.428,-6,-4,0,0,1,0,1,36
2025-05-18 18:18:32.439,-2,-12,-4,-2,-3,0,-4,-9
2025-05-18 18:18:32.449,-2,-12,-4,-2,-3,0,-4,-9
2025-05-18 18:18:32.460,5,0,2,1,-3,-3,-3,-9
2025-05-18 18:18:32.472,8,1,-2,-2,1,2,-2,-10
2025-05-18 18:18:32.482,-6,-3,-3,-2,0,-1,-2,-7
2025-05-18 18:18:32.493,1,-5,-1,-1,0,1,-1,-4
2025-05-18 18:18:32.504,1,-5,-1,-1,0,1,-1,-4
2025-05-18 18:18:32.514,3,6,0,-3,-3,-2,-1,-7
2025-05-18 18:18:32.525,3,6,0,-3,-3,-2,-1,-7
2025-05-18 18:18:32.537,-7,-7,-3,-1,-2,-2,-2,0
2025-05-18 18:18:32.547,-7,-7,-3,-1,-2,-2,-2,0
2025-05-18 18:18:32.558,4,3,-1,1,0,-2,0,2
2025-05-18 18:18:32.570,4,3,-1,1,0,-2,0,2
2025-05-18 18:18:32.580,16,-3,-1,0,-1,0,-1,-28
2025-05-18 18:18:32.591,-9,1,1,-1,2,0,-1,5
2025-05-18 18:18:32.603,-3,-6,-2,-2,-3,-2,0,3
2025-05-18 18:18:32.612,9,-7,-4,-3,-3,-2,-2,-1
2025-05-18 18:18:32.622,9,-7,-4,-3,-3,-2,-2,-1
2025-05-18 18:18:32.633,-5,6,0,-3,-2,-3,-3,8
2025-05-18 18:18:32.645,-5,6,0,-3,-2,-3,-3,8
2025-05-18 18:18:32.657,3,-5,-3,-2,-4,-1,-4,4
2025-05-18 18:18:32.667,3,-5,-3,-2,-4,-1,-4,4
2025-05-18 18:18:32.678,-11,2,0,-1,-2,-2,-3,-12
2025-05-18 18:18:32.689,-11,2,0,-1,-2,-2,-3,-12
2025-05-18 18:18:32.701,-8,-6,-1,0,0,1,-2,8
2025-05-18 18:18:32.711,-1,-1,3,2,1,-1,-1,-9
2025-05-18 18:18:32.721,0,-3,-3,-2,1,-2,-2,0
2025-05-18 18:18:32.732,-17,-6,0,0,-2,-3,-4,-19
2025-05-18 18:18:32.742,-17,-6,0,0,-2,-3,-4,-19
2025-05-18 18:18:32.753,0,0,-1,-1,-3,-3,0,2
2025-05-18 18:18:32.763,6,-1,-2,-2,-1,-2,-2,7
2025-05-18 18:18:32.774,0,-1,-2,-2,-3,-1,0,-8
2025-05-18 18:18:32.785,1,-1,-4,-2,-4,-4,-1,0
2025-05-18 18:18:32.795,-3,2,0,0,2,2,2,15
2025-05-18 18:18:32.806,-3,2,0,0,2,2,2,15
2025-05-18 18:18:32.817,2,-5,-3,0,3,-1,-1,4
2025-05-18 18:18:32.829,9,0,0,-2,1,2,3,10
2025-05-18 18:18:32.840,4,-1,0,0,0,-1,-3,-5
2025-05-18 18:18:32.851,-3,2,0,0,1,2,1,8
2025-05-18 18:18:32.862,3,0,-2,-2,-2,0,0,4
2025-05-18 18:18:32.872,20,4,1,-2,0,-1,1,-23
2025-05-18 18:18:32.884,-9,3,1,-1,-2,-2,-3,-10
2025-05-18 18:18:32.895,3,5,0,-1,2,-3,-2,-5
2025-05-18 18:18:32.906,3,5,0,-1,2,-3,-2,-5
2025-05-18 18:18:32.916,10,-3,-1,-2,-4,-2,-1,1
2025-05-18 18:18:32.929,10,-3,-1,-2,-4,-2,-1,1
2025-05-18 18:18:32.940,-8,-1,-2,-1,-3,0,-3,7
2025-05-18 18:18:32.950,-6,-3,-1,-3,-4,-1,1,2
2025-05-18 18:18:32.961,0,-1,-5,-1,0,0,1,5
2025-05-18 18:18:32.973,-4,-3,-1,-2,0,-4,-4,-18
2025-05-18 18:18:32.984,-4,-3,-1,-2,0,-4,-4,-18
2025-05-18 18:18:32.995,1,-6,-1,0,-4,-1,-2,0
2025-05-18 18:18:33.007,-4,-2,1,0,0,-1,-1,4
2025-05-18 18:18:33.019,15,3,1,-1,-2,-1,-1,-24
2025-05-18 18:18:33.030,4,1,0,0,1,0,-1,-2
2025-05-18 18:18:33.042,0,1,0,0,-2,-1,1,11
2025-05-18 18:18:33.053,9,4,-2,-2,-1,-2,-2,-7
2025-05-18 18:18:33.064,-14,-7,-3,-1,1,-1,-3,1
2025-05-18 18:18:33.074,-3,-1,2,-1,-2,-1,-2,-17
2025-05-18 18:18:33.085,2,-3,-1,-1,0,-1,-2,2
2025-05-18 18:18:33.096,-1,-3,-2,0,0,-1,-1,5
2025-05-18 18:18:33.108,-1,-3,-2,0,0,-1,-1,5
2025-05-18 18:18:33.118,-3,-5,-3,-2,-2,-2,-1,7
2025-05-18 18:18:33.129,0,-4,0,0,-1,-1,-1,4
2025-05-18 18:18:33.140,2,0,-1,0,0,-1,-3,0
2025-05-18 18:18:33.151,7,0,1,0,-2,0,0,-10
2025-05-18 18:18:33.163,7,0,1,0,-2,0,0,-10
2025-05-18 18:18:33.174,-4,-3,-3,-2,-4,-3,-1,4
2025-05-18 18:18:33.185,-4,-3,-3,-2,-4,-3,-1,4
2025-05-18 18:18:33.197,3,-6,-3,-4,-4,-2,-3,-4
2025-05-18 18:18:33.207,3,-6,-3,-4,-4,-2,-3,-4
2025-05-18 18:18:33.219,-6,2,-1,-2,-1,-4,-3,0
2025-05-18 18:18:33.228,-6,2,-1,-2,-1,-4,-3,0
2025-05-18 18:18:33.240,-12,-12,-2,-2,-2,-1,-1,-13
2025-05-18 18:18:33.251,-12,-12,-2,-2,-2,-1,-1,-13
2025-05-18 18:18:33.261,-6,-3,0,0,1,0,0,7
2025-05-18 18:18:33.272,3,3,1,1,0,0,1,4
2025-05-18 18:18:33.283,8,4,-1,0,-1,-4,-2,0
2025-05-18 18:18:33.295,-6,-3,-3,-1,-4,0,-1,3
2025-05-18 18:18:33.306,-6,-3,-3,-1,-4,0,-1,3
2025-05-18 18:18:33.319,-4,-3,-3,-2,0,1,-3,-3
2025-05-18 18:18:33.330,-8,-1,1,-1,1,-1,0,2
2025-05-18 18:18:33.342,2,0,-1,-2,-2,-1,-2,2
2025-05-18 18:18:33.353,-2,-7,-3,-1,-3,0,0,8
2025-05-18 18:18:33.363,-5,0,-1,2,0,0,-2,4
2025-05-18 18:18:33.375,-5,0,-1,2,0,0,-2,4
2025-05-18 18:18:33.385,-4,0,0,1,-1,-1,-3,-8
2025-05-18 18:18:33.396,-1,-4,-2,0,0,-2,0,0
2025-05-18 18:18:33.409,-1,-4,-2,0,0,-2,0,0
2025-05-18 18:18:33.419,-4,-1,-2,0,1,0,-2,-4
2025-05-18 18:18:33.429,-4,-1,-2,0,1,0,-2,-4
2025-05-18 18:18:33.441,-1,2,1,0,-2,-2,-4,1
2025-05-18 18:18:33.451,-11,-9,-3,-1,-2,0,1,6
2025-05-18 18:18:33.462,-3,-3,-2,-2,3,-1,-2,-1
2025-05-18 18:18:33.473,-6,3,-1,-3,0,-1,0,27
2025-05-18 18:18:33.484,-4,-10,-2,-3,-4,-2,0,6
2025-05-18 18:18:33.494,-6,2,2,2,0,-2,-3,-3
2025-05-18 18:18:33.504,6,3,0,-1,-3,-2,-1,0
2025-05-18 18:18:33.516,7,0,-1,-2,-2,-1,-3,-6
2025-05-18 18:18:33.526,7,0,-1,-2,-2,-1,-3,-6
2025-05-18 18:18:33.537,1,1,-2,0,-1,0,0,6
2025-05-18 18:18:33.547,1,1,-2,0,-1,0,0,6
2025-05-18 18:18:33.558,-5,-1,1,-1,2,-1,-3,0
2025-05-18 18:18:33.569,3,-3,-2,-2,-1,-3,-2,3
2025-05-18 18:18:33.580,-8,2,-3,-4,-1,-3,-1,-2
2025-05-18 18:18:33.591,-8,2,-3,-4,-1,-3,-1,-2
2025-05-18 18:18:33.601,-1,-3,-1,-2,0,-1,-1,-2
2025-05-18 18:18:33.611,-1,-3,-1,-2,0,-1,-1,-2
2025-05-18 18:18:33.623,-1,-4,-2,-2,-3,0,-2,-5
2025-05-18 18:18:33.634,5,-1,-2,-3,-1,0,-1,-1
2025-05-18 18:18:33.645,3,-1,-3,-1,-1,-3,-1,3
2025-05-18 18:18:33.656,-5,0,-3,-3,0,0,-2,-7
2025-05-18 18:18:33.667,-5,0,-3,-3,0,0,-2,-7
2025-05-18 18:18:33.677,-3,1,-1,1,0,-2,0,8
2025-05-18 18:18:33.687,-3,1,-1,1,0,-2,0,8
2025-05-18 18:18:33.699,-1,-1,0,-2,0,-1,-1,-2
2025-05-18 18:18:33.709,-1,-1,0,-2,0,-1,-1,-2
2025-05-18 18:18:33.720,0,-4,-2,-3,-3,-1,-1,10
2025-05-18 18:18:33.731,0,-4,-2,-3,-3,-1,-1,10
2025-05-18 18:18:33.742,0,-3,-2,-1,-1,0,1,-7
2025-05-18 18:18:33.753,-11,-2,-1,-2,0,0,0,2
2025-05-18 18:18:33.764,1,-5,-3,0,-1,-1,-2,-4
2025-05-18 18:18:33.774,6,5,-1,-2,-1,-1,-1,-4
2025-05-18 18:18:33.786,6,5,-1,-2,-1,-1,-1,-4
2025-05-18 18:18:33.797,4,-2,-1,0,-2,-2,-3,-6
2025-05-18 18:18:33.809,8,3,0,-1,0,0,-2,-4
2025-05-18 18:18:33.818,-4,-5,-1,1,0,-3,-4,-12
2025-05-18 18:18:33.831,-4,-5,-1,1,0,-3,-4,-12
2025-05-18 18:18:33.842,-8,3,-1,-1,0,-3,-1,1
2025-05-18 18:18:33.853,-8,3,-1,-1,0,-3,-1,1
2025-05-18 18:18:33.864,-7,-2,0,0,-3,-1,0,-1
2025-05-18 18:18:33.875,4,2,1,1,1,1,2,5
2025-05-18 18:18:33.887,5,2,-6,-3,-5,-1,-2,-14
2025-05-18 18:18:33.898,-5,-1,1,0,-2,-3,-4,-6
2025-05-18 18:18:33.910,-5,-1,1,0,-2,-3,-4,-6
2025-05-18 18:18:33.923,4,-4,-3,-1,0,-2,0,2
2025-05-18 18:18:33.935,-2,-1,-1,-2,-3,-2,-1,-2
2025-05-18 18:18:33.946,-12,-4,-3,-2,-1,-1,-2,39
2025-05-18 18:18:33.958,-7,-5,-2,-3,-3,-1,-2,-2
2025-05-18 18:18:33.968,-7,-5,-2,-3,-3,-1,-2,-2
2025-05-18 18:18:33.978,8,-3,0,-2,0,-2,-2,-4
2025-05-18 18:18:33.990,-5,-6,-2,-1,-1,1,0,-4
2025-05-18 18:18:34.001,7,-2,0,-1,-3,-1,-1,-7
2025-05-18 18:18:34.011,7,-2,0,-1,-3,-1,-1,-7
2025-05-18 18:18:34.023,-15,-2,-3,0,-3,-1,-2,21
2025-05-18 18:18:34.033,-15,-2,-3,0,-3,-1,-2,21
2025-05-18 18:18:34.044,0,2,-2,-2,1,-2,0,-8
2025-05-18 18:18:34.055,4,-3,-3,-3,-3,0,0,-1
2025-05-18 18:18:34.066,9,0,-3,-1,-1,-2,-2,-9
2025-05-18 18:18:34.077,0,0,1,1,0,-3,-4,-6
2025-05-18 18:18:34.087,0,0,1,1,0,-3,-4,-6
2025-05-18 18:18:34.098,-7,2,-4,-1,-3,-3,-3,-10
2025-05-18 18:18:34.110,-7,2,-4,-1,-3,-3,-3,-10
2025-05-18 18:18:34.120,12,1,0,0,0,1,-1,-5
2025-05-18 18:18:34.131,18,0,-4,-1,-1,-1,0,1
2025-05-18 18:18:34.141,-9,-2,1,1,0,1,0,-5
2025-05-18 18:18:34.152,-9,-2,1,1,0,1,0,-5
2025-05-18 18:18:34.163,-4,-6,0,-2,2,-1,-3,-4
2025-05-18 18:18:34.173,-4,-6,0,-2,2,-1,-3,-4
2025-05-18 18:18:34.184,17,8,-2,-1,-1,0,0,-29
2025-05-18 18:18:34.194,-7,-6,0,0,-1,-3,-3,5
2025-05-18 18:18:34.205,-7,-6,0,0,-1,-3,-3,5
2025-05-18 18:18:34.216,-10,0,-1,-1,-2,-3,-2,3
2025-05-18 18:18:34.227,-10,0,-1,-1,-2,-3,-2,3
2025-05-18 18:18:34.237,0,1,-1,-2,-3,0,1,3
2025-05-18 18:18:34.248,-5,-5,-3,-3,-4,-2,-2,-2
2025-05-18 18:18:34.259,-9,-1,0,0,-2,-3,-1,-3
2025-05-18 18:18:34.270,-9,-1,0,0,-2,-3,-1,-3
2025-05-18 18:18:34.281,-3,1,-4,-1,-3,-1,-1,2
2025-05-18 18:18:34.292,-3,1,-4,-1,-3,-1,-1,2
2025-05-18 18:18:34.303,0,-1,0,-2,-1,1,-1,-1
2025-05-18 18:18:34.313,-4,-9,-2,0,0,-2,-3,-1
2025-05-18 18:18:34.324,1,-1,-2,-2,-3,-3,-1,-1
2025-05-18 18:18:34.335,2,-1,-1,0,0,1,-2,5
2025-05-18 18:18:34.346,-5,0,-1,-1,0,-2,-1,-1
2025-05-18 18:18:34.357,-5,-3,-2,-2,1,-1,2,23
2025-05-18 18:18:34.368,1,0,-1,-1,-1,-1,-1,-3
2025-05-18 18:18:34.378,-1,0,-1,0,0,0,-2,-1
2025-05-18 18:18:34.389,-1,0,-1,0,0,0,-2,-1
2025-05-18 18:18:34.400,-1,2,1,0,-1,-1,-2,0
2025-05-18 18:18:34.411,-1,2,1,0,-1,-1,-2,0
2025-05-18 18:18:34.422,-3,-1,-4,-2,-2,-1,0,1
2025-05-18 18:18:34.432,3,0,2,-1,-2,-1,0,0
2025-05-18 18:18:34.443,-4,0,-1,-2,0,0,-1,0
2025-05-18 18:18:34.453,-4,0,-1,-2,0,0,-1,0
2025-05-18 18:18:34.464,0,1,-1,-1,-2,-1,2,-1
2025-05-18 18:18:34.474,0,1,-1,-1,-2,-1,2,-1
2025-05-18 18:18:34.484,3,-4,-2,-2,-1,-2,-2,-5
2025-05-18 18:18:34.494,4,-3,-3,-2,-5,0,-1,-6
2025-05-18 18:18:34.505,-3,1,-1,-3,-1,-1,-2,1
2025-05-18 18:18:34.516,-2,5,0,0,0,-2,0,2
2025-05-18 18:18:34.527,-2,5,0,0,0,-2,0,2
2025-05-18 18:18:34.538,-1,-4,-1,0,-1,1,-1,-5
2025-05-18 18:18:34.550,6,3,-1,0,0,-1,0,-1
2025-05-18 18:18:34.561,-4,-2,-2,-2,-2,-1,1,1
2025-05-18 18:18:34.571,-4,-2,-2,-2,-2,-1,1,1
2025-05-18 18:18:34.582,-2,-5,-3,-2,-4,-3,-1,-2
2025-05-18 18:18:34.593,-2,-5,-3,-2,-4,-3,-1,-2
2025-05-18 18:18:34.604,-7,7,-2,-2,-4,-4,-3,-8
2025-05-18 18:18:34.614,0,-1,-2,-1,1,0,-1,-4
2025-05-18 18:18:34.627,-4,-4,0,-2,-1,0,-1,2
2025-05-18 18:18:34.637,2,7,0,2,-2,0,0,-3
2025-05-18 18:18:34.647,2,7,0,2,-2,0,0,-3
2025-05-18 18:18:34.659,-2,-6,-1,0,0,-1,-2,1
2025-05-18 18:18:34.670,-2,-6,-1,0,0,-1,-2,1
2025-05-18 18:18:34.681,2,-1,-3,-2,-2,-2,-1,-3
2025-05-18 18:18:34.693,2,-1,-3,-2,-2,-2,-1,-3
2025-05-18 18:18:34.704,4,-6,-3,-2,-1,-5,-2,0
2025-05-18 18:18:34.715,4,-6,-3,-2,-1,-5,-2,0
2025-05-18 18:18:34.726,-6,-5,-2,-2,-1,0,1,1
2025-05-18 18:18:34.736,22,10,3,2,4,1,-2,-25
2025-05-18 18:18:34.747,-6,-1,-4,-3,-2,-2,-1,-5
2025-05-18 18:18:34.758,14,0,-1,-1,-2,-2,-3,-5
2025-05-18 18:18:34.769,14,0,-1,-1,-2,-2,-3,-5
2025-05-18 18:18:34.780,-9,-1,0,-2,-1,-1,0,1
2025-05-18 18:18:34.791,-7,-2,-2,-1,-2,0,0,3
2025-05-18 18:18:34.803,-5,-2,-1,1,1,-1,-2,-3
2025-05-18 18:18:34.814,-5,-2,-1,1,1,-1,-2,-3
2025-05-18 18:18:34.826,-4,-3,-1,-1,-1,-2,0,-1
2025-05-18 18:18:34.837,0,-5,-1,-1,2,-2,-2,0
2025-05-18 18:18:34.849,0,0,-2,-3,0,-1,0,-2
2025-05-18 18:18:34.858,-3,-2,1,1,0,-2,1,-3
2025-05-18 18:18:34.870,-3,-2,1,1,0,-2,1,-3
2025-05-18 18:18:34.882,-5,-6,-3,-4,-4,-1,1,-2
2025-05-18 18:18:34.893,-5,-6,-3,-4,-4,-1,1,-2
2025-05-18 18:18:34.904,-3,0,-2,-1,-1,-1,0,0
2025-05-18 18:18:34.915,2,4,1,0,0,1,-1,2
2025-05-18 18:18:34.925,0,1,-1,-1,-1,-2,-1,-2
2025-05-18 18:18:34.936,-1,-5,0,1,2,-3,-3,1
2025-05-18 18:18:34.946,-6,1,1,0,0,0,0,-3
2025-05-18 18:18:34.957,-3,-2,-2,-1,-2,-2,-2,-1
2025-05-18 18:18:34.968,-7,1,-1,-1,-3,-2,-1,-2
2025-05-18 18:18:34.980,-4,2,-2,-1,0,1,-2,-3
2025-05-18 18:18:34.991,-4,2,-2,-1,0,1,-2,-3
2025-05-18 18:18:35.002,4,-1,-2,-2,-1,-1,0,-3
2025-05-18 18:18:35.013,4,-1,-2,-2,-1,-1,0,-3
2025-05-18 18:18:35.024,3,0,-3,-2,-1,-2,-2,-2
2025-05-18 18:18:35.034,3,0,-3,-2,-1,-2,-2,-2
2025-05-18 18:18:35.045,3,-1,-2,-1,-1,-1,3,9
2025-05-18 18:18:35.056,0,-3,0,-2,-1,-1,-1,0
2025-05-18 18:18:35.067,-1,2,0,0,-2,-3,-2,-5
2025-05-18 18:18:35.079,-4,0,-2,-2,2,-2,-2,-7
2025-05-18 18:18:35.089,-4,0,-2,-2,2,-2,-2,-7
2025-05-18 18:18:35.100,5,-1,-2,-3,-2,0,-2,-2
2025-05-18 18:18:35.113,-6,-1,0,-2,-3,-1,-1,-2
2025-05-18 18:18:35.123,-2,-11,-1,-1,-2,-2,0,0
2025-05-18 18:18:35.134,-2,-11,-1,-1,-2,-2,0,0
2025-05-18 18:18:35.144,0,3,-2,-2,-3,-2,1,5
2025-05-18 18:18:35.156,0,3,-2,-2,-3,-2,1,5
2025-05-18 18:18:35.167,-5,1,-1,-1,0,-2,0,-3
2025-05-18 18:18:35.177,-6,0,-2,-3,-5,-2,-1,-8
2025-05-18 18:18:35.187,-6,0,-2,-3,-5,-2,-1,-8
2025-05-18 18:18:35.198,-6,-3,-2,-2,-2,0,-1,-1
2025-05-18 18:18:35.208,-4,5,-1,-1,-1,0,0,-2
2025-05-18 18:18:35.218,-4,5,-1,-1,-1,0,0,-2
2025-05-18 18:18:35.229,-4,2,1,-1,-1,-1,0,-4
2025-05-18 18:18:35.240,-1,-3,-2,-2,-1,0,-1,0
2025-05-18 18:18:35.250,-1,1,-2,1,1,-1,-1,-2
2025-05-18 18:18:35.261,-6,-3,-1,-1,0,-1,-2,-5
2025-05-18 18:18:35.272,-6,-3,-1,-1,0,-1,-2,-5
2025-05-18 18:18:35.281,-2,0,-2,-1,-3,-1,0,0
2025-05-18 18:18:35.292,-2,0,-2,-1,-3,-1,0,0
2025-05-18 18:18:35.303,1,-1,-3,-2,-2,-2,0,-2
2025-05-18 18:18:35.314,1,-1,-3,-2,-2,-2,0,-2
2025-05-18 18:18:35.323,-6,1,-2,-4,-3,-3,-1,-1
2025-05-18 18:18:35.334,-6,1,-2,-4,-3,-3,-1,-1
2025-05-18 18:18:35.345,1,3,-1,-1,-2,-1,-1,0
2025-05-18 18:18:35.355,1,-4,-3,-1,-2,0,-2,1
2025-05-18 18:18:35.365,-3,-1,-1,-2,-2,-2,1,-3
2025-05-18 18:18:35.376,-3,-1,-1,-2,-2,-2,1,-3
2025-05-18 18:18:35.387,-7,0,-3,0,-1,-1,0,-1
2025-05-18 18:18:35.399,-7,0,-3,0,-1,-1,0,-1
2025-05-18 18:18:35.410,-2,1,-1,1,1,-2,0,-2
2025-05-18 18:18:35.422,3,-1,1,-2,-1,-1,1,0
2025-05-18 18:18:35.433,3,-1,1,-2,-1,-1,1,0
2025-05-18 18:18:35.444,2,3,1,0,1,-3,0,-1
2025-05-18 18:18:35.455,2,3,1,0,1,-3,0,-1
2025-05-18 18:18:35.465,2,2,0,-1,0,1,1,-4
2025-05-18 18:18:35.476,-1,1,0,-1,-1,-1,-2,-3
2025-05-18 18:18:35.486,6,-2,-3,-2,-1,-2,-1,-2
2025-05-18 18:18:35.497,0,0,0,0,-1,-1,-2,1
2025-05-18 18:18:35.508,-3,-1,-2,-2,-4,-1,0,-1
2025-05-18 18:18:35.519,-3,-1,-2,-2,-4,-1,0,-1
2025-05-18 18:18:35.530,-2,-1,1,0,-1,-3,-2,-4
2025-05-18 18:18:35.541,-4,-3,0,-2,-2,0,1,0
2025-05-18 18:18:35.553,-6,2,-2,-3,-2,-2,1,-3
2025-05-18 18:18:35.563,-2,-1,-1,-1,-1,0,2,-1
2025-05-18 18:18:35.573,-2,-1,-1,-1,-1,0,2,-1
2025-05-18 18:18:35.584,-4,4,-1,-1,-2,-1,-1,-1
2025-05-18 18:18:35.595,-2,-1,0,-1,-1,-1,-1,1
2025-05-18 18:18:35.606,2,2,-1,-1,-2,-2,0,-1
2025-05-18 18:18:35.619,-1,-1,-3,-2,-1,-1,1,-2
2025-05-18 18:18:35.630,-1,-1,-3,-2,-1,-1,1,-2
2025-05-18 18:18:35.641,-1,0,0,-1,-3,-1,0,-3
2025-05-18 18:18:35.653,-1,0,0,-1,-3,-1,0,-3
2025-05-18 18:18:35.663,-5,0,-3,0,0,-2,-2,-5
2025-05-18 18:18:35.673,-5,0,-3,0,0,-2,-2,-5
2025-05-18 18:18:35.684,0,-2,-1,-3,-2,2,1,-1
2025-05-18 18:18:35.695,0,-2,-1,-3,-2,2,1,-1
2025-05-18 18:18:35.705,-2,-1,-1,-2,-1,-1,0,-1
2025-05-18 18:18:35.716,1,0,-1,0,-2,-1,-1,0
2025-05-18 18:18:35.727,-2,-1,-2,0,-2,-2,-1,-2
2025-05-18 18:18:35.739,0,2,1,-2,-3,1,0,2
2025-05-18 18:18:35.748,-3,0,-2,-1,1,1,0,-2
2025-05-18 18:18:35.761,7,-5,-3,-1,-2,-1,-3,-2
2025-05-18 18:18:35.771,-4,2,0,-1,-1,-2,0,-3
2025-05-18 18:18:35.782,0,0,-1,0,-1,-1,0,0
2025-05-18 18:18:35.794,0,0,-1,0,-1,-1,0,0
2025-05-18 18:18:35.804,-4,-9,-1,-2,-2,-2,-1,-2
2025-05-18 18:18:35.815,-4,-9,-1,-2,-2,-2,-1,-2
2025-05-18 18:18:35.825,-6,-7,-2,-2,-2,-1,0,-2
2025-05-18 18:18:35.836,0,0,-1,0,1,-1,-1,0
2025-05-18 18:18:35.847,1,9,1,1,0,0,1,1
2025-05-18 18:18:35.857,-3,-8,-2,0,0,0,-2,2
2025-05-18 18:18:35.869,3,3,-1,-1,2,-1,1,1
2025-05-18 18:18:35.882,-1,-3,-3,-2,-2,-4,-2,-5
2025-05-18 18:18:35.893,-1,-3,-3,-2,-2,-4,-2,-5
2025-05-18 18:18:35.904,-5,0,-1,-1,-2,0,1,-2
2025-05-18 18:18:35.914,-5,0,-1,-1,-2,0,1,-2
2025-05-18 18:18:35.925,3,11,1,0,1,0,-1,2
2025-05-18 18:18:35.937,3,11,1,0,1,0,-1,2
2025-05-18 18:18:35.948,1,6,-2,-2,-2,-1,-1,-2
2025-05-18 18:18:35.959,-2,-1,-2,-3,-3,-1,-2,-3
2025-05-18 18:18:35.970,-3,-3,-1,-2,-3,-2,2,-2
2025-05-18 18:18:35.982,-2,2,2,0,-1,-1,0,0
2025-05-18 18:18:35.993,-2,2,2,0,-1,-1,0,0
2025-05-18 18:18:36.004,-3,-2,-5,-6,-4,-3,-1,-2
2025-05-18 18:18:36.015,-3,-2,-5,-6,-4,-3,-1,-2
2025-05-18 18:18:36.025,0,-1,0,0,-1,-2,1,-2
2025-05-18 18:18:36.037,0,-1,0,0,-1,-2,1,-2
2025-05-18 18:18:36.046,2,-1,0,0,1,0,2,0
2025-05-18 18:18:36.057,2,-1,0,0,1,0,2,0
2025-05-18 18:18:36.070,-2,1,0,0,0,-1,-1,0
2025-05-18 18:18:36.080,-2,1,0,0,0,-1,-1,0
2025-05-18 18:18:36.092,-2,-2,-2,-2,-3,-1,-2,-4
2025-05-18 18:18:36.103,0,-2,1,1,0,0,2,0
2025-05-18 18:18:36.114,0,-2,1,1,0,0,2,0
2025-05-18 18:18:36.127,-5,2,-1,0,-1,1,1,0
2025-05-18 18:18:36.136,-5,2,-1,0,-1,1,1,0
2025-05-18 18:18:36.148,0,1,0,-1,1,-1,-1,0
2025-05-18 18:18:36.157,0,1,-1,-1,-1,-1,-1,-1
2025-05-18 18:18:36.169,0,-3,0,-1,0,-2,0,-3
2025-05-18 18:18:36.182,4,6,-1,0,0,-1,1,1
2025-05-18 18:18:36.192,4,6,-1,0,0,-1,1,1
2025-05-18 18:18:36.203,-4,-2,0,-4,-4,-1,-1,-2
2025-05-18 18:18:36.215,-4,-2,0,-4,-4,-1,-1,-2
2025-05-18 18:18:36.227,-3,2,-1,-2,-1,0,1,-2
2025-05-18 18:18:36.238,-3,2,-1,-2,-1,0,1,-2
2025-05-18 18:18:36.250,-4,2,-1,-2,-1,-2,0,-2
2025-05-18 18:18:36.260,-4,2,-1,-2,-1,-2,0,-2
2025-05-18 18:18:36.272,-7,2,-2,-4,-2,-2,-1,-3
2025-05-18 18:18:36.282,1,-6,-1,1,-2,0,-2,2
2025-05-18 18:18:36.293,-1,-5,1,1,1,1,0,-3
2025-05-18 18:18:36.304,-6,-7,-3,-1,-4,-2,-2,-3
2025-05-18 18:18:36.315,-6,-7,-3,-1,-4,-2,-2,-3
2025-05-18 18:18:36.327,2,2,-3,-2,-2,-1,0,0
2025-05-18 18:18:36.339,-2,-7,1,-1,-1,1,0,0
2025-05-18 18:18:36.349,3,-4,0,-1,0,1,1,2
2025-05-18 18:18:36.360,0,-2,-1,0,-2,-2,0,-1
2025-05-18 18:18:36.372,-6,-1,-1,1,5,-2,0,-4
2025-05-18 18:18:36.383,-4,-7,-5,-3,-2,-2,-3,-3
2025-05-18 18:18:36.394,0,-2,-2,-2,-4,-2,-1,-3
2025-05-18 18:18:36.405,-4,0,0,-1,-3,-1,1,-2
2025-05-18 18:18:36.415,-4,0,0,-1,-3,-1,1,-2
2025-05-18 18:18:36.427,1,4,-1,-1,-2,0,1,0
2025-05-18 18:18:36.437,1,4,-1,-1,-2,0,1,0
2025-05-18 18:18:36.449,-4,-1,-1,-3,-2,-3,1,-2
2025-05-18 18:18:36.460,-3,-7,0,1,1,2,1,-1
2025-05-18 18:18:36.470,1,7,0,0,0,1,-1,-1
2025-05-18 18:18:36.480,-6,-8,-1,-1,-1,-2,-2,0
2025-05-18 18:18:36.491,0,-1,0,-1,-1,-1,-1,-1
2025-05-18 18:18:36.503,1,2,-1,0,-1,0,-1,0
2025-05-18 18:18:36.513,-1,0,-1,-2,0,-2,0,-2
2025-05-18 18:18:36.524,4,0,0,-1,2,-2,-1,2
2025-05-18 18:18:36.535,-3,-1,-2,-1,-1,1,0,-2
2025-05-18 18:18:36.546,2,0,-1,-1,0,-1,0,2
2025-05-18 18:18:36.556,2,0,-1,-1,0,-1,0,2
2025-05-18 18:18:36.569,4,-3,-2,-1,-3,-2,-1,-4
2025-05-18 18:18:36.579,3,3,0,0,-1,-2,-1,-2
2025-05-18 18:18:36.591,-6,3,0,0,-1,-2,0,-3
2025-05-18 18:18:36.601,-2,-3,-2,-2,-3,-1,0,-1
2025-05-18 18:18:36.614,-2,-3,-2,-2,-3,-1,0,-1
2025-05-18 18:18:36.625,-3,2,0,-2,1,0,0,-3
2025-05-18 18:18:36.635,-3,2,0,-2,1,0,0,-3
2025-05-18 18:18:36.645,0,0,-1,0,-1,-1,1,1
2025-05-18 18:18:36.657,0,0,-1,0,-1,-1,1,1
2025-05-18 18:18:36.667,-5,0,-2,-1,0,1,1,-2
2025-05-18 18:18:36.679,-5,0,-2,-1,0,1,1,-2
2025-05-18 18:18:36.689,7,2,0,-1,-1,0,-1,0
2025-05-18 18:18:36.700,6,-1,-2,0,1,0,-2,-2
2025-05-18 18:18:36.711,-4,-5,-2,-2,-2,-3,0,-1
2025-05-18 18:18:36.723,-3,-2,0,-2,-2,-2,-1,-2
2025-05-18 18:18:36.734,-3,-2,0,-2,-2,-2,-1,-2
2025-05-18 18:18:36.744,2,4,-1,-3,-1,-3,0,-3
2025-05-18 18:18:36.756,2,-1,0,0,0,-2,-1,1
2025-05-18 18:18:36.768,-1,-5,0,-1,-1,-1,1,-1
2025-05-18 18:18:36.779,-1,-5,0,-1,-1,-1,1,-1
2025-05-18 18:18:36.789,-4,1,-1,-2,0,-2,0,-1
2025-05-18 18:18:36.800,-4,1,-1,-2,0,-2,0,-1
2025-05-18 18:18:36.812,-3,3,1,-1,-2,-1,0,1
2025-05-18 18:18:36.822,3,1,0,-3,-1,0,-3,0
2025-05-18 18:18:36.833,1,1,-1,0,-1,-3,0,-1
2025-05-18 18:18:36.844,-2,-3,-2,-3,-3,0,0,-5
2025-05-18 18:18:36.855,-2,-3,-2,-3,-3,0,0,-5
2025-05-18 18:18:36.865,0,1,-2,-1,-3,0,0,-2
2025-05-18 18:18:36.876,-5,3,1,0,1,1,-1,2
2025-05-18 18:18:36.887,0,1,1,1,1,1,0,0
2025-05-18 18:18:36.898,1,2,-1,0,1,-1,-2,1
2025-05-18 18:18:36.910,-1,1,-1,-2,0,-3,-1,-5
2025-05-18 18:18:36.922,-1,1,-1,-2,0,-3,-1,-5
2025-05-18 18:18:36.932,0,-1,0,0,-1,1,0,1
2025-05-18 18:18:36.943,0,-1,0,0,-1,1,0,1
2025-05-18 18:18:36.954,-12,-9,-6,-3,-1,1,-1,-7
2025-05-18 18:18:36.965,1,1,1,2,1,-1,1,2
2025-05-18 18:18:36.976,1,1,1,2,1,-1,1,2
2025-05-18 18:18:36.987,2,6,0,-2,-2,-1,1,0
2025-05-18 18:18:36.998,2,6,0,-2,-2,-1,1,0
2025-05-18 18:18:37.010,-8,-5,-1,-2,1,-1,-1,-7
2025-05-18 18:18:37.021,1,-3,-1,0,0,-1,-1,1
2025-05-18 18:18:37.030,2,-2,0,-1,0,0,1,1
2025-05-18 18:18:37.041,2,-2,0,-1,0,0,1,1
2025-05-18 18:18:37.053,10,-1,0,-2,-2,-1,-3,1
2025-05-18 18:18:37.064,10,-1,0,-2,-2,-1,-3,1
2025-05-18 18:18:37.075,9,3,1,1,1,0,1,2
2025-05-18 18:18:37.089,1,3,-1,-2,-1,-4,0,1
2025-05-18 18:18:37.100,1,3,-1,-2,-1,-4,0,1
2025-05-18 18:18:37.111,-8,1,0,-2,-1,0,0,-5
2025-05-18 18:18:37.121,-8,1,0,-2,-1,0,0,-5
2025-05-18 18:18:37.133,-1,-9,-1,0,-2,0,1,1
2025-05-18 18:18:37.144,-2,-2,-2,-1,1,0,-3,-2
2025-05-18 18:18:37.155,-7,3,0,-1,1,0,0,-2
2025-05-18 18:18:37.166,-9,2,-1,-1,-2,-1,1,-1
2025-05-18 18:18:37.177,-9,2,-1,-1,-2,-1,1,-1
2025-05-18 18:18:37.189,-1,3,-2,-1,-1,-1,-1,1
2025-05-18 18:18:37.200,-2,-5,-1,-2,-3,-2,-1,0
2025-05-18 18:18:37.211,-5,3,0,-1,0,0,0,-1
2025-05-18 18:18:37.222,-5,3,0,-1,0,0,0,-1
2025-05-18 18:18:37.233,4,0,1,-3,-3,-1,0,0
2025-05-18 18:18:37.243,4,0,1,-3,-3,-1,0,0
2025-05-18 18:18:37.254,3,1,0,-2,-1,-3,-1,-1
2025-05-18 18:18:37.265,-4,-5,0,0,-1,-1,-2,-1
2025-05-18 18:18:37.276,-2,2,0,2,6,-1,0,-1
2025-05-18 18:18:37.287,3,1,0,-2,-2,0,-1,-2
2025-05-18 18:18:37.299,3,1,0,-2,-2,0,-1,-2
2025-05-18 18:18:37.309,-2,-2,-1,-3,-2,0,0,0
2025-05-18 18:18:37.320,1,2,-1,-1,0,-1,-3,0
2025-05-18 18:18:37.331,-4,-2,-2,1,3,0,1,-2
2025-05-18 18:18:37.342,-3,1,-3,-1,-5,0,-2,-1
2025-05-18 18:18:37.353,-1,-3,-1,0,-3,0,1,0
2025-05-18 18:18:37.364,-1,-3,-1,0,-3,0,1,0
2025-05-18 18:18:37.375,0,-5,-2,-1,-1,1,0,-1
2025-05-18 18:18:37.386,-9,-4,-2,-1,0,-1,-1,-3
2025-05-18 18:18:37.396,-9,-4,-2,-1,0,-1,-1,-3
2025-05-18 18:18:37.407,0,3,0,0,-1,0,1,-1
2025-05-18 18:18:37.418,0,3,0,0,-1,0,1,-1
2025-05-18 18:18:37.430,1,0,1,1,3,-2,1,0
2025-05-18 18:18:37.441,8,-2,-3,-1,-3,-2,-3,-2
2025-05-18 18:18:37.451,1,2,0,-2,-4,-1,-3,-1
2025-05-18 18:18:37.462,-4,-1,-2,-2,0,-1,-1,-3
2025-05-18 18:18:37.473,0,-4,0,0,-1,1,-1,0
2025-05-18 18:18:37.485,0,4,-2,-1,-2,0,-1,-2
2025-05-18 18:18:37.495,-2,2,0,-2,0,-1,-1,0
2025-05-18 18:18:37.506,-2,-1,-3,0,-2,-2,-2,-1
2025-05-18 18:18:37.517,2,0,-3,-3,-4,0,-1,-3
2025-05-18 18:18:37.529,-3,-2,-1,-2,-2,-3,-1,0
2025-05-18 18:18:37.540,-3,-2,-1,-2,-2,-3,-1,0
2025-05-18 18:18:37.551,0,1,0,1,0,0,-1,0
2025-05-18 18:18:37.563,0,-4,-1,-1,0,-2,0,0
2025-05-18 18:18:37.574,-1,-2,-3,-1,0,0,0,-2
2025-05-18 18:18:37.585,-1,0,-1,-2,-1,-1,0,1
2025-05-18 18:18:37.595,-1,0,-1,-2,-1,-1,0,1
2025-05-18 18:18:37.606,-1,-6,-2,-2,-2,-1,0,-1
2025-05-18 18:18:37.618,2,-1,-1,0,-1,1,0,1
2025-05-18 18:18:37.627,1,4,-1,-2,-1,-1,-1,3
2025-05-18 18:18:37.640,1,4,-1,-2,-1,-1,-1,3
2025-05-18 18:18:37.650,-2,-4,-1,-1,-4,-1,-2,-1
2025-05-18 18:18:37.661,-2,-4,-1,-1,-4,-1,-2,-1
2025-05-18 18:18:37.672,2,-5,-1,-2,1,-1,0,-1
2025-05-18 18:18:37.682,2,-5,-1,-2,1,-1,0,-1
2025-05-18 18:18:37.694,-1,-1,-1,-1,-2,0,2,0
2025-05-18 18:18:37.705,0,-1,-1,1,-1,-1,0,0
2025-05-18 18:18:37.716,0,-1,-1,1,-1,-1,0,0
2025-05-18 18:18:37.727,-5,2,-1,-1,-1,0,-1,-3
2025-05-18 18:18:37.739,-5,2,-1,-1,-1,0,-1,-3
2025-05-18 18:18:37.749,3,3,1,1,2,1,-1,-1
2025-05-18 18:18:37.760,3,3,1,1,2,1,-1,-1
2025-05-18 18:18:37.771,-2,5,-3,-2,1,-1,-2,-2
2025-05-18 18:18:37.782,-2,5,-3,-2,1,-1,-2,-2
2025-05-18 18:18:37.794,2,-1,1,-1,0,-1,-1,-2
2025-05-18 18:18:37.804,2,-1,1,-1,0,-1,-1,-2
2025-05-18 18:18:37.817,-7,-5,-1,1,0,-1,0,-3
2025-05-18 18:18:37.828,-6,8,1,-1,-2,0,0,-2
2025-05-18 18:18:37.839,-6,8,1,-1,-2,0,0,-2
2025-05-18 18:18:37.850,6,4,-1,-2,1,0,1,4
2025-05-18 18:18:37.861,6,4,-1,-2,1,0,1,4
2025-05-18 18:18:37.871,-1,2,-1,-2,-2,-2,-1,-1
2025-05-18 18:18:37.881,0,-3,-2,-1,0,-1,0,-1
2025-05-18 18:18:37.891,-2,-4,-1,-1,0,0,-2,-3
2025-05-18 18:18:37.903,-2,-4,-1,-1,0,0,-2,-3
2025-05-18 18:18:37.914,-2,-2,-1,-1,-2,0,-1,-3
2025-05-18 18:18:37.924,-2,-2,-1,-1,-2,0,-1,-3
2025-05-18 18:18:37.936,-3,-11,-1,1,4,-1,-1,-1
2025-05-18 18:18:37.948,1,3,-1,-3,-3,-1,0,0
2025-05-18 18:18:37.959,1,3,-1,-3,-3,-1,0,0
2025-05-18 18:18:37.970,3,0,-2,0,-1,-1,-1,0
2025-05-18 18:18:37.980,3,0,-2,0,-1,-1,-1,0
2025-05-18 18:18:37.991,4,2,2,0,-1,0,0,3
2025-05-18 18:18:38.001,-3,-5,0,-1,2,1,-1,-1
2025-05-18 18:18:38.012,-6,-1,-1,-1,-2,-1,0,-1
2025-05-18 18:18:38.023,-6,-1,-1,-1,-2,-1,0,-1
2025-05-18 18:18:38.033,3,-2,-1,-3,-3,-1,1,0
2025-05-18 18:18:38.043,3,-2,-1,-3,-3,-1,1,0
2025-05-18 18:18:38.055,-4,0,-2,0,0,-2,0,-2
2025-05-18 18:18:38.066,4,-2,0,0,-1,0,0,-1
2025-05-18 18:18:38.077,4,-2,0,0,-1,0,0,-1
2025-05-18 18:18:38.088,-4,-2,1,-1,-2,0,0,0
2025-05-18 18:18:38.099,-4,-2,1,-1,-2,0,0,0
2025-05-18 18:18:38.111,0,-1,0,-1,0,-1,-1,0
2025-05-18 18:18:38.122,-4,-2,-2,1,-1,-1,-2,-3
2025-05-18 18:18:38.133,-4,-2,-2,1,-1,-1,-2,-3
2025-05-18 18:18:38.145,-3,2,-3,-4,-3,0,1,1
2025-05-18 18:18:38.155,-3,2,-3,-4,-3,0,1,1
2025-05-18 18:18:38.166,-3,2,-3,-4,-3,0,1,1
2025-05-18 18:18:38.176,-2,-1,1,-1,0,0,0,-1
2025-05-18 18:18:38.188,8,-3,-2,1,-2,0,-1,-2
2025-05-18 18:18:38.198,8,-3,-2,1,-2,0,-1,-2
2025-05-18 18:18:38.210,-4,-1,-1,1,-1,-1,1,-1
2025-05-18 18:18:38.221,-4,-1,-1,1,-1,-1,1,-1
2025-05-18 18:18:38.231,0,1,1,-1,-1,-1,-1,0
2025-05-18 18:18:38.243,4,1,-1,-2,1,2,1,-1
2025-05-18 18:18:38.255,4,1,-1,-2,1,2,1,-1
2025-05-18 18:18:38.264,-1,-12,-2,-2,0,-2,1,0
2025-05-18 18:18:38.276,-1,-12,-2,-2,0,-2,1,0
2025-05-18 18:18:38.288,-3,-1,1,-1,-1,1,1,1
2025-05-18 18:18:38.298,-3,-1,1,-1,-1,1,1,1
2025-05-18 18:18:38.310,0,6,1,0,0,0,0,2
2025-05-18 18:18:38.321,0,6,1,0,0,0,0,2
2025-05-18 18:18:38.331,-2,3,-1,-1,-1,-1,-1,-1
2025-05-18 18:18:38.343,-2,3,-1,-1,-1,-1,-1,-1
2025-05-18 18:18:38.354,2,6,2,0,0,-1,-1,-1
2025-05-18 18:18:38.365,4,-1,0,0,-1,-1,-2,-2
2025-05-18 18:18:38.375,4,-1,0,0,-1,-1,-2,-2
2025-05-18 18:18:38.386,-1,1,-1,-2,0,0,1,1
2025-05-18 18:18:38.396,-1,1,-1,-2,0,0,1,1
2025-05-18 18:18:38.408,8,0,0,-1,-2,-1,-1,-1
2025-05-18 18:18:38.419,8,0,0,-1,-2,-1,-1,-1
2025-05-18 18:18:38.431,-5,-6,-2,-1,-3,1,0,-1
2025-05-18 18:18:38.442,-5,-6,-2,-1,-3,1,0,-1
2025-05-18 18:18:38.452,-3,0,-1,-1,0,-1,-1,-1
2025-05-18 18:18:38.464,-3,0,-1,-1,0,-1,-1,-1
2025-05-18 18:18:38.475,2,-1,-2,-3,-3,-1,0,-2
2025-05-18 18:18:38.486,-4,-7,-3,-3,-1,-2,-2,-3
2025-05-18 18:18:38.496,-5,0,-2,0,1,-1,-2,-1
2025-05-18 18:18:38.507,-8,-3,0,0,3,1,-2,-2
2025-05-18 18:18:38.518,-8,-3,0,0,3,1,-2,-2
2025-05-18 18:18:38.529,-1,5,0,0,0,0,1,-1
2025-05-18 18:18:38.540,-1,5,0,0,0,0,1,-1
2025-05-18 18:18:38.550,2,5,-1,-1,0,0,-1,-2
2025-05-18 18:18:38.560,2,5,-1,-1,0,0,-1,-2
2025-05-18 18:18:38.571,-3,-4,-2,-1,-2,0,0,-3
2025-05-18 18:18:38.582,-3,-4,-2,-1,-2,0,0,-3
2025-05-18 18:18:38.593,2,2,2,1,0,0,1,0
2025-05-18 18:18:38.604,-2,4,-2,0,3,-3,-1,-1
2025-05-18 18:18:38.615,-2,-4,0,-1,0,1,1,0
2025-05-18 18:18:38.626,-3,-3,0,-1,0,-1,1,0
2025-05-18 18:18:38.636,-3,-3,0,-1,0,-1,1,0
2025-05-18 18:18:38.648,0,-8,1,0,-1,-1,1,-1
2025-05-18 18:18:38.658,0,-8,1,0,-1,-1,1,-1
2025-05-18 18:18:38.669,-2,-7,1,-3,-2,-4,0,-2
2025-05-18 18:18:38.679,-2,-7,1,-3,-2,-4,0,-2
2025-05-18 18:18:38.691,-2,-3,-1,-1,-2,-1,0,-1
2025-05-18 18:18:38.702,-2,-3,-1,-1,-2,-1,0,-1
2025-05-18 18:18:38.713,1,4,0,0,2,0,0,0
2025-05-18 18:18:38.724,-5,-2,-1,-2,1,0,-2,-3
2025-05-18 18:18:38.734,-2,1,1,0,1,0,0,0
2025-05-18 18:18:38.746,-2,2,-1,-2,-1,2,3,0
2025-05-18 18:18:38.756,-2,2,-1,-2,-1,2,3,0
2025-05-18 18:18:38.768,1,-1,0,2,2,1,0,0
2025-05-18 18:18:38.779,1,-1,0,2,2,1,0,0
2025-05-18 18:18:38.790,0,6,-2,-2,-2,-1,0,1
2025-05-18 18:18:38.801,0,6,-2,-2,-2,-1,0,1
2025-05-18 18:18:38.812,3,-2,0,1,-1,1,-1,-1
2025-05-18 18:18:38.823,3,-2,0,1,-1,1,-1,-1
2025-05-18 18:18:38.835,-2,-1,-2,-1,0,0,-2,0
2025-05-18 18:18:38.846,-2,-1,-2,-1,0,0,-2,0
2025-05-18 18:18:38.857,-1,5,0,1,3,1,0,-2
2025-05-18 18:18:38.867,4,0,1,0,1,0,-1,0
2025-05-18 18:18:38.877,4,0,1,0,1,0,-1,0
2025-05-18 18:18:38.887,-2,-6,-1,-2,-2,0,1,0
2025-05-18 18:18:38.899,-2,-6,-1,-2,-2,0,1,0
2025-05-18 18:18:38.911,2,-3,0,-3,-1,-1,0,0
2025-05-18 18:18:38.921,2,-3,0,-3,-1,-1,0,0
2025-05-18 18:18:38.932,-4,3,0,-2,-4,0,-1,0
2025-05-18 18:18:38.943,-4,3,0,-2,-4,0,-1,0
2025-05-18 18:18:38.954,3,2,-1,-1,-4,-1,0,2
2025-05-18 18:18:38.964,3,2,-1,-1,-4,-1,0,2
2025-05-18 18:18:38.975,-2,-4,-2,-2,-1,-3,-2,-2
2025-05-18 18:18:38.987,-3,-1,-2,-1,0,0,-2,0
2025-05-18 18:18:38.997,-3,-1,-2,-1,0,0,-2,0
2025-05-18 18:18:39.008,-4,-2,0,2,4,0,0,0
2025-05-18 18:18:39.018,-4,-2,0,2,4,0,0,0
2025-05-18 18:18:39.029,-6,-1,-2,0,-2,-2,-1,-3
2025-05-18 18:18:39.039,5,-2,-1,-3,-3,-2,0,-1
2025-05-18 18:18:39.051,5,1,0,0,-1,0,-1,3
2025-05-18 18:18:39.061,5,1,0,0,-1,0,-1,3
2025-05-18 18:18:39.072,-2,-3,2,-1,0,1,1,3
2025-05-18 18:18:39.082,-2,-3,2,-1,0,1,1,3
2025-05-18 18:18:39.093,-2,-3,-1,1,-1,-1,-2,-1
2025-05-18 18:18:39.105,0,-2,0,0,0,1,-1,-1
2025-05-18 18:18:39.116,0,-2,0,0,0,1,-1,-1
2025-05-18 18:18:39.127,-2,-2,-2,-2,-2,-2,-1,-1
2025-05-18 18:18:39.137,-1,-7,-3,-2,-2,0,-1,0
2025-05-18 18:18:39.148,-1,-7,-3,-2,-2,0,-1,0
2025-05-18 18:18:39.159,-2,6,0,1,2,-1,-3,-4
2025-05-18 18:18:39.170,2,0,0,-1,0,0,-2,0
2025-05-18 18:18:39.178,2,0,0,-1,0,0,-2,0
2025-05-18 18:18:39.190,4,-1,-1,0,-2,-1,-1,2
2025-05-18 18:18:39.201,4,-1,-1,0,-2,-1,-1,2
2025-05-18 18:18:39.211,-1,-2,0,-2,-2,0,0,-1
2025-05-18 18:18:39.222,-1,-2,0,-2,-2,0,0,-1
2025-05-18 18:18:39.232,0,-3,3,0,-1,1,-1,1
2025-05-18 18:18:39.243,0,-3,3,0,-1,1,-1,1
2025-05-18 18:18:39.254,0,-1,-1,-2,0,-2,-3,-3
2025-05-18 18:18:39.265,0,-1,-1,-2,0,-2,-3,-3
2025-05-18 18:18:39.276,4,-1,1,-2,-3,0,1,1
2025-05-18 18:18:39.287,3,-3,-2,-1,0,0,-1,-2
2025-05-18 18:18:39.298,3,-3,-2,-1,0,0,-1,-2
2025-05-18 18:18:39.308,-2,-3,-3,-1,-1,-1,-2,-1
2025-05-18 18:18:39.320,-2,-3,-3,-1,-1,-1,-2,-1
2025-05-18 18:18:39.331,-3,3,0,1,3,2,1,1
2025-05-18 18:18:39.342,-3,3,0,1,3,2,1,1
2025-05-18 18:18:39.352,2,-3,-3,-1,-1,-3,0,2
2025-05-18 18:18:39.364,2,-3,-3,-1,-1,-3,0,2
2025-05-18 18:18:39.375,-2,0,0,2,-1,0,0,3
2025-05-18 18:18:39.386,-2,0,0,2,-1,0,0,3
2025-05-18 18:18:39.397,8,-3,-2,-2,-2,0,-2,0
2025-05-18 18:18:39.407,-6,0,-2,-2,0,-3,-2,-6
2025-05-18 18:18:39.419,-1,4,3,2,1,1,0,4
2025-05-18 18:18:39.430,-3,3,0,2,0,-2,-1,0
2025-05-18 18:18:39.440,-3,3,0,2,0,-2,-1,0
2025-05-18 18:18:39.451,-4,-5,1,0,0,1,-1,0
2025-05-18 18:18:39.462,-4,-5,1,0,0,1,-1,0
2025-05-18 18:18:39.473,-2,-2,0,-1,0,-1,-3,0
2025-05-18 18:18:39.485,-2,-2,0,-1,0,-1,-3,0
2025-05-18 18:18:39.495,-1,-5,-1,-1,-1,0,-1,0
2025-05-18 18:18:39.505,-1,-5,-1,-1,-1,0,-1,0
2025-05-18 18:18:39.517,-2,-4,-3,-4,-3,0,-3,-1
2025-05-18 18:18:39.527,-2,6,-1,-1,1,0,1,-1
2025-05-18 18:18:39.537,3,-2,1,0,0,1,-1,2
2025-05-18 18:18:39.547,1,1,-1,0,0,1,-1,2
2025-05-18 18:18:39.558,1,1,-1,0,0,1,-1,2
2025-05-18 18:18:39.570,0,-1,-1,-2,-2,0,2,0
2025-05-18 18:18:39.581,-3,-5,-1,1,0,0,0,-1
2025-05-18 18:18:39.592,2,1,-2,-2,0,-1,-2,-1
2025-05-18 18:18:39.604,2,1,-2,-2,0,-1,-2,-1
2025-05-18 18:18:39.615,1,0,0,-1,1,-3,-1,2
2025-05-18 18:18:39.626,1,0,0,-1,1,-3,-1,2
2025-05-18 18:18:39.638,-1,-1,-2,-2,-2,0,-1,1
2025-05-18 18:18:39.649,-8,-4,-1,-1,-2,-1,-1,-4
2025-05-18 18:18:39.661,-1,-3,-1,0,0,0,-2,0
2025-05-18 18:18:39.671,1,-4,0,1,-3,-1,-1,2
2025-05-18 18:18:39.682,1,-4,0,1,-3,-1,-1,2
2025-05-18 18:18:39.692,2,-3,-1,-2,0,-2,-2,2
2025-05-18 18:18:39.702,2,-3,-1,-2,0,-2,-2,2
2025-05-18 18:18:39.713,8,-2,-2,-2,-2,0,-3,0
2025-05-18 18:18:39.723,8,-2,-2,-2,-2,0,-3,0
2025-05-18 18:18:39.733,-5,0,2,-1,0,0,-3,-2
2025-05-18 18:18:39.744,-5,0,2,-1,0,0,-3,-2
2025-05-18 18:18:39.755,0,-1,0,-1,-1,0,0,-1
2025-05-18 18:18:39.767,0,-1,0,-1,-1,0,0,-1
2025-05-18 18:18:39.778,-1,-6,-1,1,-1,-1,-1,-1
2025-05-18 18:18:39.788,-2,-3,-1,0,1,-1,-1,-3
2025-05-18 18:18:39.800,-2,-3,-1,0,1,-1,-1,-3
2025-05-18 18:18:39.812,1,-1,-1,1,-2,0,-3,2
2025-05-18 18:18:39.822,1,-1,-1,1,-2,0,-3,2
2025-05-18 18:18:39.833,-1,1,-1,-1,2,1,0,0
2025-05-18 18:18:39.844,-1,1,-1,-1,2,1,0,0
2025-05-18 18:18:39.855,-2,-3,-3,-1,-2,0,-1,-1
2025-05-18 18:18:39.866,-2,-3,-3,-1,-2,0,-1,-1
2025-05-18 18:18:39.878,0,-2,-1,0,1,0,-1,2
2025-05-18 18:18:39.889,0,-2,-1,0,1,0,-1,2
2025-05-18 18:18:39.900,7,0,1,-3,-1,-1,-2,0
2025-05-18 18:18:39.911,-4,-5,0,1,0,1,-2,0
2025-05-18 18:18:39.922,-4,-5,0,1,0,1,-2,0
2025-05-18 18:18:39.933,-2,-3,0,2,-1,0,1,2
2025-05-18 18:18:39.944,-2,-3,0,2,-1,0,1,2
2025-05-18 18:18:39.955,2,-1,1,-1,-2,0,-1,-3
2025-05-18 18:18:39.967,-5,-9,-2,0,0,1,1,-2
2025-05-18 18:18:39.977,2,-1,0,-1,-1,0,-3,-1
2025-05-18 18:18:39.988,2,-1,0,-1,-1,0,-3,-1
2025-05-18 18:18:40.000,0,-1,0,0,-2,-2,-1,1
2025-05-18 18:18:40.011,0,-1,0,0,-2,-2,-1,1
2025-05-18 18:18:40.021,-3,-5,-2,-2,-1,-2,-2,-4
2025-05-18 18:18:40.032,2,0,-1,-1,0,-2,-4,-1
2025-05-18 18:18:40.043,2,0,-1,-1,0,-2,-4,-1
2025-05-18 18:18:40.054,2,-3,0,1,-1,1,-1,3
2025-05-18 18:18:40.065,2,-3,0,1,-1,1,-1,3
2025-05-18 18:18:40.075,3,4,-1,1,0,0,0,4
2025-05-18 18:18:40.087,0,-3,-4,-2,-1,-1,-1,2
2025-05-18 18:18:40.097,0,-3,-4,-2,-1,-1,-1,2
2025-05-18 18:18:40.107,0,-3,-4,-2,-1,-1,-1,2
2025-05-18 18:18:40.119,2,-1,0,1,1,0,-1,-1
2025-05-18 18:18:40.129,2,-1,0,1,1,0,-1,-1
2025-05-18 18:18:40.141,2,-3,1,-1,-4,1,-2,0
2025-05-18 18:18:40.151,-8,-3,-2,-1,-2,0,-2,-2
2025-05-18 18:18:40.162,-8,-3,-2,-1,-2,0,-2,-2
2025-05-18 18:18:40.174,2,-4,-1,0,2,0,-2,2
2025-05-18 18:18:40.185,2,-4,-1,0,2,0,-2,2
2025-05-18 18:18:40.196,2,3,1,1,1,-1,-2,-1
2025-05-18 18:18:40.208,-1,1,1,-1,-1,-2,2,-1
2025-05-18 18:18:40.219,0,-3,0,-1,3,2,-3,3
2025-05-18 18:18:40.230,7,0,-2,-1,-2,-1,-2,0
2025-05-18 18:18:40.240,7,0,-2,-1,-2,-1,-2,0
2025-05-18 18:18:40.252,-3,0,-1,-2,-1,-1,-1,-1
2025-05-18 18:18:40.264,-3,-4,-1,-3,-2,0,0,0
2025-05-18 18:18:40.274,-6,-5,-1,0,0,-2,0,0
2025-05-18 18:18:40.284,-6,-5,-1,0,0,-2,0,0
2025-05-18 18:18:40.294,1,-4,0,0,1,-1,-2,-1
2025-05-18 18:18:40.305,1,-4,0,0,1,-1,-2,-1
2025-05-18 18:18:40.315,-1,-2,0,1,0,-1,-1,1
2025-05-18 18:18:40.326,-1,-2,0,1,0,-1,-1,1
2025-05-18 18:18:40.337,0,-4,-2,0,0,-1,-1,1
2025-05-18 18:18:40.347,0,-4,-2,0,0,-1,-1,1
2025-05-18 18:18:40.359,1,-1,0,0,-2,0,-1,-1
2025-05-18 18:18:40.370,1,-1,0,0,-2,0,-1,-1
2025-05-18 18:18:40.381,0,2,-2,-1,-2,-1,-3,0
2025-05-18 18:18:40.391,5,-2,-2,-2,-2,0,0,-1
2025-05-18 18:18:40.402,-2,-3,1,0,-1,0,-2,-1
2025-05-18 18:18:40.412,3,-4,-1,-2,-1,-1,0,2
2025-05-18 18:18:40.424,3,-4,-1,-2,-1,-1,0,2
2025-05-18 18:18:40.435,-3,-3,-4,0,0,-2,-4,-3
2025-05-18 18:18:40.446,-6,1,-1,1,-2,-1,-1,-2
2025-05-18 18:18:40.456,6,-2,-1,0,1,1,0,1
2025-05-18 18:18:40.466,6,-2,-1,0,1,1,0,1
2025-05-18 18:18:40.477,-4,3,0,-1,-3,0,-3,0
2025-05-18 18:18:40.487,-4,3,0,-1,-3,0,-3,0
2025-05-18 18:18:40.499,1,-4,-1,0,0,-3,-2,1
2025-05-18 18:18:40.510,-5,1,0,-2,-2,-1,2,-4
2025-05-18 18:18:40.522,-6,4,-2,0,2,0,-2,-1
2025-05-18 18:18:40.533,0,-5,-1,0,-2,0,-1,1
2025-05-18 18:18:40.543,0,-5,-1,0,-2,0,-1,1
2025-05-18 18:18:40.554,-5,-7,1,1,0,1,-1,1
2025-05-18 18:18:40.566,4,-1,-1,-2,-4,-3,-2,-2
2025-05-18 18:18:40.577,0,0,-2,-2,-1,-1,-1,0
2025-05-18 18:18:40.587,0,0,-2,-2,-1,-1,-1,0
2025-05-18 18:18:40.598,0,-5,-2,-1,-2,-1,-3,-1
2025-05-18 18:18:40.609,0,-5,-2,-1,-2,-1,-3,-1
2025-05-18 18:18:40.620,5,0,-1,0,-2,-1,-2,0
2025-05-18 18:18:40.630,1,1,1,1,-2,-4,0,-1
2025-05-18 18:18:40.641,0,-3,-2,-2,-2,-1,-3,0
2025-05-18 18:18:40.651,4,-12,-4,-1,1,-2,-2,-1
2025-05-18 18:18:40.662,4,-12,-4,-1,1,-2,-2,-1
2025-05-18 18:18:40.672,0,0,1,-2,-2,0,0,-1
2025-05-18 18:18:40.684,4,0,-1,1,0,0,0,3
2025-05-18 18:18:40.695,-2,-1,0,-2,-3,-1,-3,-1
2025-05-18 18:18:40.708,-2,-1,0,-2,-3,-1,-3,-1
2025-05-18 18:18:40.720,0,-3,0,-1,1,1,-3,2
2025-05-18 18:18:40.730,0,-3,0,-1,1,1,-3,2
2025-05-18 18:18:40.742,-1,1,-1,0,-1,0,-3,-2
2025-05-18 18:18:40.753,-1,1,-1,0,-1,0,-3,-2
2025-05-18 18:18:40.764,3,3,0,2,-1,0,0,1
2025-05-18 18:18:40.776,2,-4,-1,0,3,-2,-3,0
2025-05-18 18:18:40.786,2,-4,-1,0,3,-2,-3,0
2025-05-18 18:18:40.799,0,-1,0,-1,-2,0,0,3
2025-05-18 18:18:40.809,0,-1,0,-1,-2,0,0,3
2025-05-18 18:18:40.819,-4,-3,-2,-1,-1,-2,-2,2
2025-05-18 18:18:40.830,-4,4,-3,-2,-3,-2,-1,-4
2025-05-18 18:18:40.841,8,-5,-2,-1,0,-2,-1,0
2025-05-18 18:18:40.853,0,0,-2,0,0,-2,-1,-3
2025-05-18 18:18:40.863,-13,-1,-1,-1,-2,0,-3,-8
2025-05-18 18:18:40.874,-13,-1,-1,-1,-2,0,-3,-8
2025-05-18 18:18:40.885,2,-3,0,0,0,1,-1,2
2025-05-18 18:18:43.194,2,4,-1,-1,-4,-1,0,-1
2025-05-18 18:18:43.205,-3,1,-2,-5,-3,-2,-3,-5
2025-05-18 18:18:43.216,2,0,1,1,-2,1,-1,0
2025-05-18 18:18:43.226,-6,1,-1,1,-3,-2,-2,-3
2025-05-18 18:18:43.238,0,2,-3,-2,-1,-1,0,0
2025-05-18 18:18:43.248,0,2,-3,-2,-1,-1,0,0
2025-05-18 18:18:43.260,0,-3,0,0,0,0,0,0
2025-05-18 18:18:43.272,-1,-2,-3,-1,-1,-2,-3,-2
2025-05-18 18:18:43.283,-1,1,-2,-2,-1,-3,-1,-2
2025-05-18 18:18:43.292,-1,1,-2,-2,-1,-3,-1,-2
2025-05-18 18:18:43.303,0,0,-3,0,-3,-4,0,0
2025-05-18 18:18:43.314,0,0,-3,0,-3,-4,0,0
2025-05-18 18:18:43.326,0,0,-2,-3,-2,-2,0,-3
2025-05-18 18:18:43.337,0,-1,0,-2,0,-2,-2,0
2025-05-18 18:18:43.348,-4,1,0,-1,-1,-2,0,-2
2025-05-18 18:18:43.358,1,-1,-3,-2,-1,-1,0,0
2025-05-18 18:18:43.370,1,-1,-3,-2,-1,-1,0,0
2025-05-18 18:18:43.380,-1,2,0,-3,-5,0,0,-1
2025-05-18 18:18:43.391,-1,2,0,-3,-5,0,0,-1
2025-05-18 18:18:43.403,4,5,-1,-4,-1,-3,-1,-1
2025-05-18 18:18:43.414,4,5,-1,-4,-1,-3,-1,-1
2025-05-18 18:18:43.427,-11,-3,-1,-1,-1,-2,0,-3
2025-05-18 18:18:43.438,-11,-3,-1,-1,-1,-2,0,-3
2025-05-18 18:18:43.448,-6,-3,-1,-1,0,-1,-2,-3
2025-05-18 18:18:43.459,4,0,1,1,1,-1,0,1
2025-05-18 18:18:43.470,0,0,-1,-1,-2,-2,2,-3
2025-05-18 18:18:43.481,-4,-4,-1,-2,-1,-4,0,-3
2025-05-18 18:18:43.492,-4,-4,-1,-2,-1,-4,0,-3
2025-05-18 18:18:43.503,-1,4,-3,-2,-1,-1,-1,-4
2025-05-18 18:18:43.514,3,-5,0,1,-1,0,0,0
2025-05-18 18:18:43.525,-4,-1,-1,-2,-2,-2,-1,-3
2025-05-18 18:18:43.535,-4,-1,-1,-2,-2,-2,-1,-3
2025-05-18 18:18:43.545,-1,-4,-1,-2,-2,-2,-1,-3
2025-05-18 18:18:43.556,-1,-4,-1,-2,-2,-2,-1,-3
2025-05-18 18:18:43.567,-8,-1,-3,0,0,-1,-1,-1
2025-05-18 18:18:43.578,-8,-1,-3,0,0,-1,-1,-1
2025-05-18 18:18:43.589,-1,0,1,0,1,-2,-1,-4
2025-05-18 18:18:43.600,-3,-2,-4,-2,-3,-2,-2,-8
2025-05-18 18:18:43.612,-3,-2,-4,-2,-3,-2,-2,-8
2025-05-18 18:18:43.622,2,1,0,-2,-4,-1,0,1
2025-05-18 18:18:43.633,2,1,0,-2,-4,-1,0,1
2025-05-18 18:18:43.645,-6,4,0,-2,2,-2,0,-3
2025-05-18 18:18:43.655,-6,4,0,-2,2,-2,0,-3
2025-05-18 18:18:43.667,-1,-2,0,-1,-3,1,-1,-3
2025-05-18 18:18:43.678,-1,-2,0,-1,-3,1,-1,-3
2025-05-18 18:18:43.689,-10,-3,-4,-2,-2,-2,-2,-4
2025-05-18 18:18:43.700,-10,-3,-4,-2,-2,-2,-2,-4
2025-05-18 18:18:43.711,6,-2,-3,-1,1,0,0,1
2025-05-18 18:18:43.722,2,-2,1,-1,0,0,-1,2
2025-05-18 18:18:43.733,-8,-1,0,0,1,-1,0,-3
2025-05-18 18:18:43.744,1,-3,-2,-3,-2,-2,0,-2
2025-05-18 18:18:43.755,1,-3,-2,-3,-2,-2,0,-2
2025-05-18 18:18:43.766,-2,1,-1,-1,-2,-4,0,-2
2025-05-18 18:18:43.778,-4,-3,-1,0,0,-1,1,-1
2025-05-18 18:18:43.787,-3,2,-2,-2,-3,-3,-1,-1
2025-05-18 18:18:43.800,4,-3,-3,0,-1,0,-1,3
2025-05-18 18:18:43.810,-3,7,-2,0,-3,-1,0,-2
2025-05-18 18:18:43.821,-3,7,-2,0,-3,-1,0,-2
2025-05-18 18:18:43.831,-8,2,0,-3,-3,-3,-1,-1
2025-05-18 18:18:43.843,-4,-1,2,2,5,0,0,-1
2025-05-18 18:18:43.853,0,-3,0,-2,-1,0,0,1
2025-05-18 18:18:43.863,-4,1,-3,-1,-1,-3,-1,-1
2025-05-18 18:18:43.875,-4,1,-3,-1,-1,-3,-1,-1
2025-05-18 18:18:43.884,7,-3,-2,-2,-3,-2,-1,-3
2025-05-18 18:18:43.895,7,-3,-2,-2,-3,-2,-1,-3
2025-05-18 18:18:43.906,3,1,-3,-2,-1,0,1,-2
2025-05-18 18:18:43.916,3,1,-3,-2,-1,0,1,-2
2025-05-18 18:18:43.926,-5,1,-3,-1,-1,-2,0,-2
2025-05-18 18:18:43.937,-5,1,-3,-1,-1,-2,0,-2
2025-05-18 18:18:43.949,0,-3,0,-1,-1,-1,0,-1
2025-05-18 18:18:43.960,-3,-3,-1,-3,-1,-1,-3,1
2025-05-18 18:18:43.970,5,1,-1,-2,-1,-1,0,-1
2025-05-18 18:18:43.982,-4,7,-5,-1,-3,-3,-1,-4
2025-05-18 18:18:43.993,-4,7,-5,-1,-3,-3,-1,-4
2025-05-18 18:18:44.004,-9,-2,-1,-2,-4,-1,0,-4
2025-05-18 18:18:44.014,-9,-2,-1,-2,-4,-1,0,-4
2025-05-18 18:18:44.025,-5,0,0,1,0,0,1,-1
2025-05-18 18:18:44.036,-5,0,0,1,0,0,1,-1
2025-05-18 18:18:44.047,-11,-2,-4,-2,-1,-1,-1,-5
2025-05-18 18:18:44.059,-11,-2,-4,-2,-1,-1,-1,-5
2025-05-18 18:18:44.069,4,4,-2,-1,-1,-4,-1,-3
2025-05-18 18:18:44.079,3,0,-1,-1,0,2,-1,0
2025-05-18 18:18:44.092,-2,2,-1,1,3,1,2,-1
2025-05-18 18:18:44.102,-8,-7,-2,-2,-4,-3,0,-6
2025-05-18 18:18:44.112,-8,-7,-2,-2,-4,-3,0,-6
2025-05-18 18:18:44.123,-2,1,1,1,0,0,-2,-12
2025-05-18 18:18:44.134,-1,1,-2,-2,-4,0,0,-11
2025-05-18 18:18:44.144,-1,3,-1,0,-2,-1,0,2
2025-05-18 18:18:44.155,-1,3,-1,0,-2,-1,0,2
2025-05-18 18:18:44.165,-5,-2,1,-1,-1,0,1,-2
2025-05-18 18:18:44.176,-5,-2,1,-1,-1,0,1,-2
2025-05-18 18:18:44.186,-6,-5,-2,-3,-1,-2,0,4
2025-05-18 18:18:44.197,2,0,-2,0,-2,0,-3,1
2025-05-18 18:18:44.207,-10,3,1,-2,1,0,0,-10
2025-05-18 18:18:44.220,5,-1,0,1,2,2,0,1
2025-05-18 18:18:44.231,14,4,1,-2,-1,-2,2,-17
2025-05-18 18:18:44.243,-27,-2,0,-1,-2,0,-2,-10
2025-05-18 18:18:44.254,-4,4,0,-1,-1,-1,-1,3
2025-05-18 18:18:44.265,-9,1,-4,-3,-3,-1,1,4
2025-05-18 18:18:44.276,-9,1,-4,-3,-3,-1,1,4
2025-05-18 18:18:44.288,0,1,-1,-1,-1,-2,0,-1
2025-05-18 18:18:44.297,0,1,-1,-1,-1,-2,0,-1
2025-05-18 18:18:44.307,-9,-4,-3,-3,-2,-3,-1,28
2025-05-18 18:18:44.319,8,-7,-1,0,2,-1,-1,0
2025-05-18 18:18:44.329,-5,-7,-4,-1,-2,-3,-1,-2
2025-05-18 18:18:44.339,1,-1,-1,-1,0,1,1,22
2025-05-18 18:18:44.351,0,5,1,0,-3,0,1,-3
2025-05-18 18:18:44.361,0,5,1,0,-3,0,1,-3
2025-05-18 18:18:44.372,-4,2,1,1,2,1,1,-3
2025-05-18 18:18:44.384,2,-2,1,0,0,-1,-3,0
2025-05-18 18:18:44.394,18,6,-1,-2,-1,-1,-1,-8
2025-05-18 18:18:44.404,5,6,1,0,1,0,1,-8
2025-05-18 18:18:44.416,5,6,1,0,1,0,1,-8
2025-05-18 18:18:44.425,-6,-7,1,-3,-1,-2,1,-9
2025-05-18 18:18:44.435,-9,-11,-2,-2,-3,-2,-2,-1
2025-05-18 18:18:44.447,1,4,-1,-1,0,3,4,4
2025-05-18 18:18:44.457,1,4,-1,-1,0,3,4,4
2025-05-18 18:18:44.469,-6,-2,-3,-1,-3,-3,1,-2
2025-05-18 18:18:44.480,-6,-2,-3,-1,-3,-3,1,-2
2025-05-18 18:18:44.491,8,0,0,1,-1,-2,1,0
2025-05-18 18:18:44.500,8,0,0,1,-1,-2,1,0
2025-05-18 18:18:44.512,-12,-7,-4,-3,0,0,0,0
2025-05-18 18:18:44.522,9,3,-1,-1,0,0,0,-7
2025-05-18 18:18:44.534,9,3,-1,-1,0,0,0,-7
2025-05-18 18:18:44.546,-10,-2,-1,-2,-1,-1,-2,-7
2025-05-18 18:18:44.556,-10,-2,-1,-2,-1,-1,-2,-7
2025-05-18 18:18:44.567,-3,5,-1,-2,-4,-1,3,2
2025-05-18 18:18:44.577,-3,5,-1,-2,-4,-1,3,2
2025-05-18 18:18:44.588,-8,-8,0,-1,-2,1,0,-4
2025-05-18 18:18:44.599,-8,-8,0,-1,-2,1,0,-4
2025-05-18 18:18:44.609,2,7,-1,0,0,0,1,-4
2025-05-18 18:18:44.620,2,7,-1,0,0,0,1,-4
2025-05-18 18:18:44.631,-12,4,2,-1,0,-3,-2,-4
2025-05-18 18:18:44.642,-2,3,-3,-2,-3,-1,0,-2
2025-05-18 18:18:44.653,-2,3,-3,-2,-3,-1,0,-2
2025-05-18 18:18:44.664,0,1,-1,0,-1,-1,0,-1
2025-05-18 18:18:44.675,0,1,-1,0,-1,-1,0,-1
2025-05-18 18:18:44.686,-9,-6,-2,-3,-2,-3,1,-1
2025-05-18 18:18:44.696,-9,-6,-2,-3,-2,-3,1,-1
2025-05-18 18:18:44.707,5,2,-3,-1,-2,-2,0,4
2025-05-18 18:18:44.718,5,2,-3,-1,-2,-2,0,4
2025-05-18 18:18:44.729,-2,2,0,-1,-2,-1,1,-2
2025-05-18 18:18:44.740,-2,2,0,-1,-2,-1,1,-2
2025-05-18 18:18:44.749,-8,3,-3,-4,-3,0,-2,-5
2025-05-18 18:18:44.761,-3,-3,0,-1,-1,-3,-3,-2
2025-05-18 18:18:44.771,-3,2,0,-1,-1,0,1,0
2025-05-18 18:18:44.781,5,0,-2,0,1,2,-1,3
2025-05-18 18:18:44.791,11,-7,-2,-1,-2,-2,-1,3
2025-05-18 18:18:44.803,11,-7,-2,-1,-2,-2,-1,3
2025-05-18 18:18:44.814,6,-2,1,-2,3,-1,1,-2
2025-05-18 18:18:44.826,-3,1,0,0,-2,0,1,4
2025-05-18 18:18:44.837,-3,1,0,0,-2,0,1,4
2025-05-18 18:18:44.849,-4,-1,-1,0,0,-2,1,-3
2025-05-18 18:18:44.859,-4,-1,-1,0,0,-2,1,-3
2025-05-18 18:18:44.871,-4,0,0,-2,0,-1,-1,-5
2025-05-18 18:18:44.882,5,-1,-1,-1,-3,-1,-2,1
2025-05-18 18:18:44.892,0,5,-2,-1,0,-1,1,-3
2025-05-18 18:18:44.902,-3,-6,-3,-2,-2,0,-2,5
2025-05-18 18:18:44.914,-8,0,-1,-1,-5,-1,1,-2
2025-05-18 18:18:44.925,-2,0,1,0,-1,-1,-1,5
2025-05-18 18:18:44.937,3,4,1,-1,-3,-1,0,-1
2025-05-18 18:18:44.948,-2,3,1,0,-1,1,1,5
2025-05-18 18:18:44.959,-2,3,1,0,-1,1,1,5
2025-05-18 18:18:44.970,-11,0,-2,-2,-1,-2,-1,-3
2025-05-18 18:18:44.980,-11,0,-2,-2,-1,-2,-1,-3
2025-05-18 18:18:44.992,1,2,0,-1,0,-1,0,-3
2025-05-18 18:18:45.002,-1,-6,-1,-1,-3,-1,-1,-3
2025-05-18 18:18:45.013,-6,0,0,-1,-2,0,2,-8
2025-05-18 18:18:45.024,0,1,-2,-3,1,-4,0,-1
2025-05-18 18:18:45.036,0,1,-2,-3,1,-4,0,-1
2025-05-18 18:18:45.047,-4,4,-3,-3,-1,0,2,23
2025-05-18 18:18:45.058,-25,-9,-2,-2,-1,-2,-4,33
2025-05-18 18:18:45.069,-11,-5,0,0,0,0,-1,-12
2025-05-18 18:18:45.080,-11,-5,0,0,0,0,-1,-12
2025-05-18 18:18:45.091,5,-2,-2,-3,-1,-1,-1,-5
2025-05-18 18:18:45.101,5,-2,-2,-3,-1,-1,-1,-5
2025-05-18 18:18:45.112,11,-1,-2,-1,0,-2,-1,-8
2025-05-18 18:18:45.123,7,-11,1,1,-1,0,-1,-2
2025-05-18 18:18:45.135,-9,4,0,0,-3,-1,0,-5
2025-05-18 18:18:45.146,0,-1,-1,-1,-1,-1,1,-5
2025-05-18 18:18:45.157,0,-1,-1,-1,-1,-1,1,-5
2025-05-18 18:18:45.169,-1,0,-1,0,-3,-2,0,5
2025-05-18 18:18:45.178,3,0,-1,0,0,0,-3,-1
2025-05-18 18:18:45.190,2,0,-1,-1,-3,-1,0,-2
2025-05-18 18:18:45.201,-3,-3,0,-1,-1,-1,-1,-5
2025-05-18 18:18:45.212,0,0,-2,-3,-2,0,-2,-4
2025-05-18 18:18:45.223,0,0,-2,-3,-2,0,-2,-4
2025-05-18 18:18:45.234,-3,2,0,-2,-1,-1,1,-3
2025-05-18 18:18:45.245,5,1,0,1,-1,0,-1,0
2025-05-18 18:18:45.257,-2,-1,-1,-2,0,-1,-1,-12
2025-05-18 18:18:45.268,-1,-5,0,-1,-1,0,1,3
2025-05-18 18:18:45.278,-1,-5,0,-1,-1,0,1,3
2025-05-18 18:18:45.290,-1,4,-1,-2,1,-1,0,0
2025-05-18 18:18:45.301,-1,-4,-4,-1,-1,0,-2,-1
2025-05-18 18:18:45.311,-4,2,-2,-2,-1,0,-1,0
2025-05-18 18:18:45.321,1,1,-1,-2,-1,0,-1,8
2025-05-18 18:18:45.333,-18,-4,1,-1,1,-2,-1,-6
2025-05-18 18:18:45.344,-3,-4,0,-1,-1,0,-2,-3
2025-05-18 18:18:45.355,4,0,-1,-1,-3,-2,2,0
2025-05-18 18:18:45.366,-1,5,-1,-2,-3,-2,-1,-4
2025-05-18 18:18:45.377,9,3,-1,1,-1,-1,0,-3
2025-05-18 18:18:45.390,-1,1,1,1,0,0,1,0
2025-05-18 18:18:45.401,-1,1,1,1,0,0,1,0
2025-05-18 18:18:45.412,-1,1,-4,-2,-2,-1,1,0
2025-05-18 18:18:45.423,-3,-4,-2,-2,-1,-1,-3,4
2025-05-18 18:18:45.433,5,1,-2,-2,-1,-1,0,-2
2025-05-18 18:18:45.444,1,6,1,-1,-1,1,1,-10
2025-05-18 18:18:45.455,1,6,1,-1,-1,1,1,-10
2025-05-18 18:18:45.466,-3,-2,0,-1,4,1,1,2
2025-05-18 18:18:45.477,-3,-2,0,-1,4,1,1,2
2025-05-18 18:18:45.489,-2,-7,-2,-2,-3,-2,-1,-4
2025-05-18 18:18:45.500,-2,-7,-2,-2,-3,-2,-1,-4
2025-05-18 18:18:45.510,-3,1,-1,-1,0,-3,0,2
2025-05-18 18:18:45.520,-3,1,-1,-1,0,-3,0,2
2025-05-18 18:18:45.531,0,3,0,-1,0,-2,2,-2
2025-05-18 18:18:45.541,0,3,0,-1,0,-2,2,-2
2025-05-18 18:18:45.552,-4,2,0,-3,-5,1,0,-5
2025-05-18 18:18:45.563,3,5,2,1,-1,1,2,-6
2025-05-18 18:18:45.574,3,5,2,1,-1,1,2,-6
2025-05-18 18:18:45.587,-4,-1,-3,-2,0,-2,1,7
2025-05-18 18:18:45.597,-4,-1,-3,-2,0,-2,1,7
2025-05-18 18:18:45.609,-3,-2,-1,1,0,1,0,14
2025-05-18 18:18:45.619,-3,-2,-1,1,0,1,0,14
2025-05-18 18:18:45.630,-5,-5,0,-3,0,2,0,-6
2025-05-18 18:18:45.640,-5,-5,0,-3,0,2,0,-6
2025-05-18 18:18:45.651,21,1,0,0,1,0,1,-39
2025-05-18 18:18:45.662,21,1,0,0,1,0,1,-39
2025-05-18 18:18:45.673,-1,1,-2,-3,-3,-1,-1,10
2025-05-18 18:18:45.685,-7,-1,-2,-1,-2,-1,-4,-7
2025-05-18 18:18:45.695,-8,3,-1,0,-2,-2,-2,1
2025-05-18 18:18:45.705,3,1,-2,-1,1,-1,-2,6
2025-05-18 18:18:45.715,1,-2,-2,-2,-3,0,2,3
2025-05-18 18:18:45.727,7,-7,-3,-1,-3,-1,-1,0
2025-05-18 18:18:45.737,2,-1,1,-1,0,1,1,-8
2025-05-18 18:18:45.748,-9,5,1,1,0,-1,-1,7
2025-05-18 18:18:45.760,-9,5,1,1,0,-1,-1,7
2025-05-18 18:18:45.770,-32,-6,-2,-1,-1,0,-2,-11
2025-05-18 18:18:45.782,-32,-6,-2,-1,-1,0,-2,-11
2025-05-18 18:18:45.793,27,4,2,-1,3,0,1,-18
2025-05-18 18:18:45.804,-11,-1,1,0,-2,0,-1,22
2025-05-18 18:18:45.815,-4,0,-1,-2,-2,0,2,9
2025-05-18 18:18:45.826,-2,0,-1,1,0,1,0,7
2025-05-18 18:18:45.839,-2,0,-1,1,0,1,0,7
2025-05-18 18:18:45.852,-5,-2,-3,-1,-1,-2,-1,-2
2025-05-18 18:18:45.863,5,0,-1,-1,-3,-1,-2,-1
2025-05-18 18:18:45.874,0,-3,0,-2,-1,-1,3,25
2025-05-18 18:18:45.884,10,-2,-2,-1,-2,0,-2,-7
2025-05-18 18:18:45.894,22,3,-1,-4,-2,-1,0,5
2025-05-18 18:18:45.905,22,3,-1,-4,-2,-1,0,5
2025-05-18 18:18:45.917,-13,1,0,-2,-3,0,1,-2
2025-05-18 18:18:45.928,-4,2,-1,-1,0,-1,-2,-9
2025-05-18 18:18:45.939,-4,2,-1,-1,0,-1,-2,-9
2025-05-18 18:18:45.950,-27,-5,-5,-6,-2,-1,-1,23
2025-05-18 18:18:45.961,-27,-5,-5,-6,-2,-1,-1,23
2025-05-18 18:18:45.972,-4,-7,0,1,-2,-4,-1,-9
2025-05-18 18:18:45.983,-5,-3,0,-1,0,-1,0,0
2025-05-18 18:18:45.993,1,5,-1,-2,-3,-1,0,-10
2025-05-18 18:18:46.005,0,0,-1,-1,-1,0,-2,-3
2025-05-18 18:18:46.016,-2,0,2,-1,-1,1,-1,-8
2025-05-18 18:18:46.027,-1,-4,-2,-2,-3,0,-2,-1
2025-05-18 18:18:46.038,-1,0,0,0,-2,0,1,-3
2025-05-18 18:18:46.049,-26,-6,1,-1,-1,-1,-3,-13
2025-05-18 18:18:46.060,-26,-6,1,-1,-1,-1,-3,-13
2025-05-18 18:18:46.071,0,7,-1,-1,-1,0,1,-6
2025-05-18 18:18:46.084,0,7,-1,-1,-1,0,1,-6
2025-05-18 18:18:46.095,6,5,-1,1,-2,-2,2,0
2025-05-18 18:18:46.105,2,-1,-1,-1,-1,-2,0,16
2025-05-18 18:18:46.115,8,0,-2,1,-1,1,0,1
2025-05-18 18:18:46.127,9,1,0,0,-1,-1,0,3
2025-05-18 18:18:46.137,9,1,0,0,-1,-1,0,3
2025-05-18 18:18:46.148,7,-2,0,0,1,1,-1,-3
2025-05-18 18:18:46.160,7,-2,0,0,1,1,-1,-3
2025-05-18 18:18:46.170,3,1,-1,-1,0,1,1,-1
2025-05-18 18:18:46.181,3,1,-1,-1,0,1,1,-1
2025-05-18 18:18:46.191,12,0,0,0,-2,-1,0,-2
2025-05-18 18:18:46.200,12,0,0,0,-2,-1,0,-2
2025-05-18 18:18:46.212,6,0,-1,-2,-1,0,1,4
2025-05-18 18:18:46.222,6,0,-1,-2,-1,0,1,4
2025-05-18 18:18:46.233,-9,-13,-2,-2,-1,-2,-2,-5
2025-05-18 18:18:46.244,-6,-2,-2,-1,0,-1,-2,-25
2025-05-18 18:18:46.256,-6,-2,-2,-1,0,-1,-2,-25
2025-05-18 18:18:46.267,-1,2,0,-1,-1,-2,0,9
2025-05-18 18:18:46.277,-1,2,0,-1,-1,-2,0,9
2025-05-18 18:18:46.288,-1,2,0,-1,-1,-2,0,9
2025-05-18 18:18:46.300,-2,2,1,-1,0,3,3,9
2025-05-18 18:18:46.308,-6,-3,-1,-1,-1,0,0,-3
2025-05-18 18:18:46.319,-6,-3,-1,-1,-1,0,0,-3
2025-05-18 18:18:46.331,5,4,1,-2,-2,-1,-1,0
2025-05-18 18:18:46.343,5,4,1,-2,-2,-1,-1,0
2025-05-18 18:18:46.354,7,7,2,-1,-1,2,0,-19
2025-05-18 18:18:46.366,-4,1,-1,-1,-2,-1,0,7
2025-05-18 18:18:46.377,-4,1,-1,-1,-2,-1,0,7
2025-05-18 18:18:46.387,-8,-1,1,-1,-1,2,0,4
2025-05-18 18:18:46.397,-8,-1,1,-1,-1,2,0,4
2025-05-18 18:18:46.409,-1,2,-3,0,-1,-1,-2,9
2025-05-18 18:18:46.421,-4,-3,0,-3,0,-1,1,-1
2025-05-18 18:18:46.431,1,-6,-1,-2,0,0,-1,4
2025-05-18 18:18:46.443,1,-6,-1,-2,0,0,-1,4
2025-05-18 18:18:46.455,-6,0,-2,1,1,0,-2,-6
2025-05-18 18:18:46.466,-6,0,-2,1,1,0,-2,-6
2025-05-18 18:18:46.476,-1,3,-2,-3,-2,-2,0,7
2025-05-18 18:18:46.487,-1,-4,0,-1,0,-2,-1,-5
2025-05-18 18:18:46.497,-1,-4,0,-1,0,-2,-1,-5
2025-05-18 18:18:46.508,4,-6,-1,-1,-1,1,2,-4
2025-05-18 18:18:46.520,4,-6,-1,-1,-1,1,2,-4
2025-05-18 18:18:46.531,-2,2,1,0,1,-1,1,6
2025-05-18 18:18:46.543,-2,2,1,0,1,-1,1,6
2025-05-18 18:18:46.553,-1,-4,-5,-3,-4,-2,-3,-8
2025-05-18 18:18:46.564,-1,-4,-5,-3,-4,-2,-3,-8
2025-05-18 18:18:46.574,-10,-1,1,0,0,-1,2,4
2025-05-18 18:18:46.586,-10,-1,1,0,0,-1,2,4
2025-05-18 18:18:46.596,15,-2,0,-1,-1,-1,-1,-6
2025-05-18 18:18:46.608,1,2,0,1,1,1,1,6
2025-05-18 18:18:46.619,1,2,0,1,1,1,1,6
2025-05-18 18:18:46.629,-2,3,2,-1,-1,0,1,1
2025-05-18 18:18:46.640,-2,3,2,-1,-1,0,1,1
2025-05-18 18:18:46.649,3,4,0,-1,-1,-1,-2,-4
2025-05-18 18:18:46.662,3,4,0,-1,-1,-1,-2,-4
2025-05-18 18:18:46.673,13,6,1,-2,-1,0,2,6
2025-05-18 18:18:46.684,13,6,1,-2,-1,0,2,6
2025-05-18 18:18:46.695,9,-3,-1,-1,0,2,0,1
2025-05-18 18:18:46.706,9,-3,-1,-1,0,2,0,1
2025-05-18 18:18:46.718,-22,-4,0,-1,0,-1,1,-3
2025-05-18 18:18:46.728,4,2,0,0,0,-1,-1,4
2025-05-18 18:18:46.739,4,2,0,0,0,-1,-1,4
2025-05-18 18:18:46.749,4,2,0,0,0,-1,-1,4
2025-05-18 18:18:46.760,15,-3,-1,1,-2,2,-1,-24
2025-05-18 18:18:46.772,-13,-1,1,0,0,-1,3,6
2025-05-18 18:18:46.783,-13,-1,1,0,0,-1,3,6
2025-05-18 18:18:46.794,-3,1,2,1,2,1,0,1
2025-05-18 18:18:46.805,-3,1,2,1,2,1,0,1
2025-05-18 18:18:46.816,0,-5,-1,-2,-2,0,-1,6
2025-05-18 18:18:46.828,0,-5,-1,-2,-2,0,-1,6
2025-05-18 18:18:46.837,4,7,2,-1,-3,-2,-1,-1
2025-05-18 18:18:46.848,-4,-1,-1,0,1,0,-1,2
2025-05-18 18:18:46.859,-4,-1,-1,0,1,0,-1,2
2025-05-18 18:18:46.870,-33,-8,-2,0,0,-1,-2,-3
2025-05-18 18:18:46.881,-33,-8,-2,0,0,-1,-2,-3
2025-05-18 18:18:46.893,11,0,-2,0,-1,-1,-1,4
2025-05-18 18:18:46.904,-14,-9,0,0,4,-2,1,28
2025-05-18 18:18:46.914,-14,-9,0,0,4,-2,1,28
2025-05-18 18:18:46.924,-14,-9,0,0,4,-2,1,28
2025-05-18 18:18:46.935,-8,2,1,-1,-2,0,1,-2
2025-05-18 18:18:46.947,-8,2,1,-1,-2,0,1,-2
2025-05-18 18:18:46.958,5,2,0,-1,-1,-1,-1,-6
2025-05-18 18:18:46.968,-2,0,-2,-2,-1,0,0,-2
2025-05-18 18:18:46.979,-2,0,-2,-2,-1,0,0,-2
2025-05-18 18:18:46.990,9,3,0,0,1,1,0,8
2025-05-18 18:18:47.000,9,3,0,0,1,1,0,8
2025-05-18 18:18:47.010,-1,-5,1,0,1,0,-2,-5
2025-05-18 18:18:47.021,-1,-5,1,0,1,0,-2,-5
2025-05-18 18:18:47.032,3,1,1,0,-2,1,-1,-5
2025-05-18 18:18:47.042,3,1,1,0,-2,1,-1,-5
2025-05-18 18:18:47.054,-3,-1,-3,-2,-3,-1,-1,-8
2025-05-18 18:18:47.065,-3,-1,-3,-2,-3,-1,-1,-8
2025-05-18 18:18:47.075,8,0,0,2,0,0,0,-1
2025-05-18 18:18:47.087,-4,-6,-3,-2,-2,-1,0,15
2025-05-18 18:18:47.099,13,-3,-1,0,-1,0,1,-15
2025-05-18 18:18:47.110,-3,1,-1,0,0,1,0,11
2025-05-18 18:18:47.121,-3,1,-1,0,0,1,0,11
2025-05-18 18:18:47.132,-3,-2,-2,-3,-1,-2,-2,1
2025-05-18 18:18:47.142,-3,-2,-2,-3,-1,-2,-2,1
2025-05-18 18:18:47.153,14,4,2,-1,1,1,0,5
2025-05-18 18:18:47.165,14,4,2,-1,1,1,0,5
2025-05-18 18:18:47.175,9,-1,1,0,-2,-1,0,1
2025-05-18 18:18:47.186,9,-1,1,0,-2,-1,0,1
2025-05-18 18:18:47.198,-11,-3,-1,-2,-1,0,-1,-4
2025-05-18 18:18:47.208,2,-1,-2,-2,-2,-2,-1,-2
2025-05-18 18:18:47.220,4,2,-1,0,0,0,-1,7
2025-05-18 18:18:47.231,3,-1,0,-1,2,0,1,-1
2025-05-18 18:18:47.242,3,-1,0,-1,2,0,1,-1
2025-05-18 18:18:47.251,-10,-3,-2,0,-2,2,0,1
2025-05-18 18:18:47.262,-5,1,0,-1,-2,-1,-1,1
2025-05-18 18:18:47.273,-3,1,2,2,2,1,0,3
2025-05-18 18:18:47.284,-3,1,2,2,2,1,0,3
2025-05-18 18:18:47.294,17,2,0,0,0,0,2,29
2025-05-18 18:18:47.304,17,2,0,0,0,0,2,29
2025-05-18 18:18:47.315,7,-2,0,-1,1,0,-2,-4
2025-05-18 18:18:47.326,-10,1,-2,-3,0,-1,-1,10
2025-05-18 18:18:47.335,-13,-6,-1,-1,-4,1,-2,-15
2025-05-18 18:18:47.348,0,-3,-1,-2,-2,-2,-2,-5
2025-05-18 18:18:47.359,0,-3,-1,-2,-2,-2,-2,-5
2025-05-18 18:18:47.369,0,-3,-1,-2,-2,-2,-2,-5
2025-05-18 18:18:47.381,0,-3,-1,-2,-2,-2,-2,-5
2025-05-18 18:18:47.392,7,-2,-3,-1,-2,2,-1,0
2025-05-18 18:18:47.403,7,-2,-3,-1,-2,2,-1,0
2025-05-18 18:18:47.414,-1,1,-1,-2,-1,-1,0,-2
2025-05-18 18:18:47.425,-1,1,-1,-2,-1,-1,0,-2
2025-05-18 18:18:47.436,-3,-2,0,1,3,1,0,-4
2025-05-18 18:18:47.446,-3,-2,0,1,3,1,0,-4
2025-05-18 18:18:47.457,0,0,0,-2,-1,0,-1,6
2025-05-18 18:18:47.468,-15,0,1,1,-1,-2,-4,-25
2025-05-18 18:18:47.480,-15,0,1,1,-1,-2,-4,-25
2025-05-18 18:18:47.490,8,-3,-1,-1,0,-1,-1,3
2025-05-18 18:18:47.502,8,-3,-1,-1,0,-1,-1,3
2025-05-18 18:18:47.512,-7,0,-1,1,-2,-3,-1,1
2025-05-18 18:18:47.523,-7,0,-2,0,0,0,-2,4
2025-05-18 18:18:47.533,3,0,0,-1,2,1,0,2
2025-05-18 18:18:47.544,3,0,0,-1,2,1,0,2
2025-05-18 18:18:47.555,3,2,0,-1,2,1,1,3
2025-05-18 18:18:47.566,3,2,0,-1,2,1,1,3
2025-05-18 18:18:47.577,2,-4,-1,2,0,-1,-2,1
2025-05-18 18:18:47.589,8,-1,0,2,5,1,0,7
2025-05-18 18:18:47.600,8,-1,0,2,5,1,0,7
2025-05-18 18:18:47.610,1,-2,0,-1,-5,-1,-1,1
2025-05-18 18:18:47.621,1,-2,0,-1,-5,-1,-1,1
2025-05-18 18:18:47.633,-2,-4,-1,-1,1,-1,-1,-2
2025-05-18 18:18:47.643,-2,-4,-1,-1,1,-1,-1,-2
2025-05-18 18:18:47.654,-2,-4,0,0,-1,-1,-1,0
2025-05-18 18:18:47.665,-2,-4,0,0,-1,-1,-1,0
2025-05-18 18:18:47.677,-11,-9,-1,-2,-2,-1,-3,-3
2025-05-18 18:18:47.688,-11,-9,-1,-2,-2,-1,-3,-3
2025-05-18 18:18:47.699,-1,-8,-1,0,-2,0,-1,0
2025-05-18 18:18:47.710,19,2,0,0,-2,-1,-4,2
2025-05-18 18:18:47.720,19,2,0,0,-2,-1,-4,2
2025-05-18 18:18:47.731,-5,0,-1,0,4,-1,-2,-1
2025-05-18 18:18:47.741,-5,0,-1,0,4,-1,-2,-1
2025-05-18 18:18:47.754,-6,-3,0,-1,-3,-2,-3,-1
2025-05-18 18:18:47.765,-6,-3,0,-1,-3,-2,-3,-1
2025-05-18 18:18:47.776,7,-1,-1,-2,-2,0,1,4
2025-05-18 18:18:47.787,7,-1,-1,-2,-2,0,1,4
2025-05-18 18:18:47.797,2,0,-3,-2,-3,0,-1,0
2025-05-18 18:18:47.808,2,0,-3,-2,-3,0,-1,0
2025-05-18 18:18:47.819,-6,-2,0,-2,-1,0,-1,0
2025-05-18 18:18:47.830,7,1,-1,-1,-1,2,-1,5
2025-05-18 18:18:47.841,7,1,-1,-1,-1,2,-1,5
2025-05-18 18:18:47.852,-3,-1,1,0,2,0,0,0
2025-05-18 18:18:47.863,-3,-1,1,0,2,0,0,0
2025-05-18 18:18:47.875,1,1,-1,2,0,-1,0,1
2025-05-18 18:18:47.887,-5,-4,-3,-1,-1,-1,-3,-3
2025-05-18 18:18:47.897,-5,-4,-3,-1,-1,-1,-3,-3
2025-05-18 18:18:47.907,-5,-4,-3,-1,-1,-1,-3,-3
2025-05-18 18:18:47.919,-4,-10,0,3,1,2,0,1
2025-05-18 18:18:47.928,-4,-10,0,3,1,2,0,1
2025-05-18 18:18:47.940,-6,0,0,0,1,0,-1,-2
2025-05-18 18:18:47.953,4,-3,-1,-2,-3,-1,1,0
2025-05-18 18:18:47.965,4,-3,-1,-2,-3,-1,1,0
2025-05-18 18:18:47.976,1,-1,1,0,-2,-1,-1,-2
2025-05-18 18:18:47.987,1,-1,1,0,-2,-1,-1,-2
2025-05-18 18:18:47.998,4,0,-1,0,1,-1,-2,2
2025-05-18 18:18:48.009,-7,0,3,0,0,1,-1,-6
2025-05-18 18:18:48.020,1,1,1,1,1,1,0,-1
2025-05-18 18:18:48.032,-1,-3,1,1,1,1,-1,-1
2025-05-18 18:18:48.043,-1,-3,1,1,1,1,-1,-1
2025-05-18 18:18:48.053,7,-1,-1,-2,-1,-2,-2,-6
2025-05-18 18:18:48.065,21,4,-1,-2,-1,-1,1,4
2025-05-18 18:18:48.076,-4,-1,-1,-2,-3,1,-3,3
2025-05-18 18:18:48.086,-4,-1,-1,-2,-3,1,-3,3
2025-05-18 18:18:48.097,18,3,1,2,5,3,0,-31
2025-05-18 18:18:48.109,18,3,1,2,5,3,0,-31
2025-05-18 18:18:48.118,-5,-3,0,1,-1,0,-3,14
2025-05-18 18:18:48.129,1,2,-1,-1,-1,0,0,-2
2025-05-18 18:18:48.141,-1,-2,0,-1,-1,-1,-1,8
2025-05-18 18:18:48.152,-32,-11,-3,-3,-2,-1,-4,-4
2025-05-18 18:18:48.162,-32,-11,-3,-3,-2,-1,-4,-4
2025-05-18 18:18:48.174,10,1,1,-1,-1,-1,0,2
2025-05-18 18:18:48.185,-23,-7,-3,-3,-2,0,1,10
2025-05-18 18:18:48.196,-3,-7,-1,-1,0,2,1,6
2025-05-18 18:18:48.208,-3,-7,-1,-1,0,2,1,6
2025-05-18 18:18:48.219,7,0,-2,0,-3,-3,-3,5
2025-05-18 18:18:48.230,7,0,-2,0,-3,-3,-3,5
2025-05-18 18:18:48.239,2,1,-1,-1,0,-1,-2,1
2025-05-18 18:18:48.251,-20,-1,-3,-5,-3,0,-1,-10
2025-05-18 18:18:48.262,12,3,-2,-1,1,2,-2,4
2025-05-18 18:18:48.273,-2,1,1,-1,-1,0,-1,1
2025-05-18 18:18:48.285,-2,1,1,-1,-1,0,-1,1
2025-05-18 18:18:48.296,11,-2,-1,0,-1,-2,-2,-5
2025-05-18 18:18:48.307,11,-2,-1,0,-1,-2,-2,-5
2025-05-18 18:18:48.317,-6,0,0,0,-2,0,-3,10
2025-05-18 18:18:48.329,2,-4,-2,0,-1,0,0,2
2025-05-18 18:18:48.340,2,-4,-2,0,-1,0,0,2
2025-05-18 18:18:48.350,2,-4,-2,0,-1,0,0,2
2025-05-18 18:18:48.362,4,-4,0,-1,0,1,-1,2
2025-05-18 18:18:48.372,4,-4,0,-1,0,1,-1,2
2025-05-18 18:18:48.382,2,-3,-2,0,-1,0,-1,1
2025-05-18 18:18:48.392,-1,0,-1,0,-1,-1,-2,-1
2025-05-18 18:18:48.406,-1,0,-1,0,-1,-1,-2,-1
2025-05-18 18:18:48.417,1,-6,0,1,1,-1,1,4
2025-05-18 18:18:48.429,1,-6,0,1,1,-1,1,4
2025-05-18 18:18:48.440,6,-2,0,0,1,-1,-1,-5
2025-05-18 18:18:48.451,1,6,-1,-2,-1,-2,-3,-1
2025-05-18 18:18:48.461,1,6,-1,-2,-1,-2,-3,-1
2025-05-18 18:18:48.473,-4,-3,0,0,2,0,-3,1
2025-05-18 18:18:48.484,-4,-3,0,0,2,0,-3,1
2025-05-18 18:18:48.495,-2,-6,-1,-1,-2,0,0,-1
2025-05-18 18:18:48.506,-2,-6,-1,-1,-2,0,0,-1
2025-05-18 18:18:48.517,-3,-3,-1,-1,0,0,-4,-1
2025-05-18 18:18:48.529,-3,-3,-1,-1,0,0,-4,-1
2025-05-18 18:18:48.539,-1,-4,0,-1,-1,-1,-1,-1
2025-05-18 18:18:48.550,-1,-4,0,-1,-1,-1,-1,-1
2025-05-18 18:18:48.561,2,-3,-1,0,4,0,-1,4
2025-05-18 18:18:48.571,-6,-6,-1,-1,-1,-2,-3,2
2025-05-18 18:18:48.582,-6,-6,-1,-1,-1,-2,-3,2
2025-05-18 18:18:48.594,3,1,-1,-1,-1,0,-4,-3
2025-05-18 18:18:48.604,3,1,-1,-1,-1,0,-4,-3
2025-05-18 18:18:48.616,-4,-5,-3,-3,-2,-2,-1,7
2025-05-18 18:18:48.627,-4,-5,-3,-3,-2,-2,-1,7
2025-05-18 18:18:48.637,3,-2,-2,-1,-2,-1,-2,-1
2025-05-18 18:18:48.647,3,-2,-2,-1,-2,-1,-2,-1
2025-05-18 18:18:48.658,2,-2,0,0,-2,-1,-3,-4
2025-05-18 18:18:48.670,2,-2,0,0,-2,-1,-3,-4
2025-05-18 18:18:48.681,0,-1,-3,-1,-2,0,-2,2
2025-05-18 18:18:48.692,-3,-5,-4,0,-2,-1,-3,-5
2025-05-18 18:18:48.704,-3,-5,-4,0,-2,-1,-3,-5
2025-05-18 18:18:48.713,-3,-4,1,-1,0,-1,-3,3
2025-05-18 18:18:48.725,-3,-4,1,-1,0,-1,-3,3
2025-05-18 18:18:48.735,-1,-5,0,1,0,-1,-2,1
2025-05-18 18:18:48.747,-1,-5,0,1,0,-1,-2,1
2025-05-18 18:18:48.758,-1,-1,-1,0,-2,0,0,0
2025-05-18 18:18:48.769,-1,-1,-1,0,-2,0,0,0
2025-05-18 18:18:48.780,5,0,1,-1,-1,2,-1,1
2025-05-18 18:18:48.791,5,0,1,-1,-1,2,-1,1
2025-05-18 18:18:48.803,-4,-3,-1,-1,-1,-1,-4,-4
2025-05-18 18:18:48.814,4,0,0,1,2,0,2,1
2025-05-18 18:18:48.825,4,0,0,1,2,0,2,1
2025-05-18 18:18:48.836,-3,0,0,0,-3,-1,-3,7
2025-05-18 18:18:48.847,-3,0,0,0,-3,-1,-3,7
2025-05-18 18:18:48.857,2,0,0,0,0,0,-2,2
2025-05-18 18:18:48.868,2,0,0,0,0,0,-2,2
2025-05-18 18:18:48.880,-1,-2,-3,0,4,0,0,2
2025-05-18 18:18:48.890,-1,-2,-3,0,4,0,0,2
2025-05-18 18:18:48.902,0,2,0,0,-1,0,-1,0
2025-05-18 18:18:48.912,0,2,0,0,-1,0,-1,0
2025-05-18 18:18:48.923,5,-1,0,1,0,0,-1,-4
2025-05-18 18:18:48.933,-5,0,-1,-1,-1,0,2,3
2025-05-18 18:18:48.944,-6,0,-2,-1,-1,0,-1,6
2025-05-18 18:18:48.955,-3,-1,0,-1,1,0,-1,1
2025-05-18 18:18:48.967,-3,-1,0,-1,1,0,-1,1
2025-05-18 18:18:48.979,0,-3,-1,-4,-5,-1,-3,-1
2025-05-18 18:18:48.988,-19,-1,-1,-2,-2,-3,-1,5
2025-05-18 18:18:49.000,16,-4,1,1,0,-1,0,-17
2025-05-18 18:18:49.011,16,-4,1,1,0,-1,0,-17
2025-05-18 18:18:49.022,-1,-11,-3,-2,-1,-2,-5,7
2025-05-18 18:18:49.034,-1,-11,-3,-2,-1,-2,-5,7
2025-05-18 18:18:49.044,-3,0,2,0,2,-1,-2,5
2025-05-18 18:18:49.054,4,0,-2,-2,-2,2,2,4
2025-05-18 18:18:49.065,0,-3,-2,0,0,-1,0,6
2025-05-18 18:18:49.077,-4,-4,0,0,-2,-1,-3,-4
2025-05-18 18:18:49.088,-4,-4,0,0,-2,-1,-3,-4
2025-05-18 18:18:49.099,4,1,0,-1,0,0,-3,-1
2025-05-18 18:18:49.110,7,3,0,-1,0,-3,-1,-4
2025-05-18 18:18:49.122,-1,1,0,-1,-1,1,-1,-2
2025-05-18 18:18:49.132,-31,-4,-2,-1,1,-3,-1,-8
2025-05-18 18:18:49.144,-2,-4,0,0,-1,0,-1,6
2025-05-18 18:18:49.155,7,3,0,-2,-3,0,1,3
2025-05-18 18:18:49.165,-2,-3,-4,-1,-1,-1,-2,0
2025-05-18 18:18:49.177,6,0,-1,0,0,0,-2,1
2025-05-18 18:18:49.187,6,0,-1,0,0,0,-2,1
2025-05-18 18:18:49.199,4,4,0,0,0,1,0,1
2025-05-18 18:18:49.209,4,0,1,0,-1,0,-1,2
2025-05-18 18:18:49.218,0,-1,1,1,0,0,-1,-3
2025-05-18 18:18:49.228,0,-1,1,1,0,0,-1,-3
2025-05-18 18:18:49.240,-7,-3,-1,-1,1,-1,-1,0
2025-05-18 18:18:49.252,-7,-1,0,-1,-3,0,0,-3
2025-05-18 18:18:49.263,24,1,1,1,1,1,-3,-33
2025-05-18 18:18:49.273,24,1,1,1,1,1,-3,-33
2025-05-18 18:18:49.285,-6,-5,-3,-2,-3,0,-3,10
2025-05-18 18:18:49.296,-3,4,0,1,0,-1,2,-6
2025-05-18 18:18:49.307,-7,-9,0,-2,-2,0,-3,6
2025-05-18 18:18:49.318,-2,0,-3,-2,-1,-3,-3,5
2025-05-18 18:18:49.328,-2,0,-3,-2,-1,-3,-3,5
2025-05-18 18:18:49.340,0,-2,-2,-1,-1,-1,-1,2
2025-05-18 18:18:49.350,0,-2,-2,-1,-1,-1,-1,2
2025-05-18 18:18:49.361,2,-3,0,1,-2,-3,-2,7
2025-05-18 18:18:49.372,-3,4,0,-2,-1,1,2,8
2025-05-18 18:18:49.382,4,-3,-4,0,-1,-1,-5,3
2025-05-18 18:18:49.392,4,-3,-4,0,-1,-1,-5,3
2025-05-18 18:18:49.403,-20,-1,1,-2,0,-1,-2,-3
2025-05-18 18:18:49.414,-20,-1,1,-2,0,-1,-2,-3
2025-05-18 18:18:49.425,-4,-5,0,-1,-1,1,-2,0
2025-05-18 18:18:49.437,-8,-1,-2,-2,-1,-1,0,2
2025-05-18 18:18:49.448,-6,-8,-2,-1,-1,-2,-4,-3
2025-05-18 18:18:49.461,14,1,-1,-2,0,1,-1,-7
2025-05-18 18:18:49.472,14,1,-1,-2,0,1,-1,-7
2025-05-18 18:18:49.482,3,-11,0,0,0,-2,-2,3
2025-05-18 18:18:49.493,0,-1,-1,-2,-1,-1,0,-1
2025-05-18 18:18:49.503,0,-2,-4,-1,0,-2,-3,2
2025-05-18 18:18:49.514,-5,-4,0,0,0,0,2,-1
2025-05-18 18:18:49.525,2,1,1,1,-2,0,-1,7
2025-05-18 18:18:49.535,2,1,1,1,-2,0,-1,7
2025-05-18 18:18:49.547,0,-1,-2,-1,0,-2,-3,4
2025-05-18 18:18:49.558,-5,-3,-2,0,-3,-2,-3,-2
2025-05-18 18:18:49.569,-5,-3,-2,0,-3,-2,-3,-2
2025-05-18 18:18:49.579,-3,-4,-3,-1,1,1,-1,3
2025-05-18 18:18:49.591,-3,-4,-3,-1,1,1,-1,3
2025-05-18 18:18:49.602,-5,-2,-1,2,3,-1,-3,0
2025-05-18 18:18:49.613,-8,-6,-3,0,-1,0,1,0
2025-05-18 18:18:49.624,2,0,-1,-2,-3,0,-3,-1
2025-05-18 18:18:49.635,-23,-4,-1,-2,-3,-1,-3,-3
2025-05-18 18:18:49.646,-23,-4,-1,-2,-3,-1,-3,-3
2025-05-18 18:18:49.656,-23,-4,-1,-2,-3,-1,-3,-3
2025-05-18 18:18:49.667,16,6,-1,0,-2,1,-1,-3
2025-05-18 18:18:49.678,-3,-3,0,-1,-2,-3,-3,2
2025-05-18 18:18:49.689,-3,-3,0,-1,-2,-3,-3,2
2025-05-18 18:18:49.701,6,-1,-3,-1,-1,0,-3,1
2025-05-18 18:18:49.712,6,-1,-3,-1,-1,0,-3,1
2025-05-18 18:18:49.722,20,-2,-1,0,1,-2,-3,1
2025-05-18 18:18:49.732,3,3,1,3,3,0,0,-8
2025-05-18 18:18:49.743,1,-6,-1,-2,-1,-1,-3,2
2025-05-18 18:18:49.753,1,-6,-1,-2,-1,-1,-3,2
2025-05-18 18:18:49.765,-12,-4,-1,-1,-1,2,0,5
2025-05-18 18:18:49.775,-12,-4,-1,-1,-1,2,0,5
2025-05-18 18:18:49.786,-3,-6,-1,-1,-2,-1,-1,3
2025-05-18 18:18:49.797,-21,-1,-1,-3,-3,-1,-1,-4
2025-05-18 18:18:49.809,-5,0,-3,0,0,-1,0,1
2025-05-18 18:18:49.819,0,-1,0,-1,-1,-1,-2,-2
2025-05-18 18:18:49.831,0,-1,0,-1,-1,-1,-2,-2
2025-05-18 18:18:49.842,3,-1,-4,-1,-1,-2,-4,1
2025-05-18 18:18:49.853,8,0,1,0,1,0,0,-2
2025-05-18 18:18:49.865,1,-7,-2,-2,-1,-1,-3,-4
2025-05-18 18:18:49.876,-4,0,-1,1,0,-2,-1,-2
2025-05-18 18:18:49.887,-4,0,-1,1,0,-2,-1,-2
2025-05-18 18:18:49.899,-2,-2,-2,-1,-3,-2,-3,-4
2025-05-18 18:18:49.910,12,4,0,0,0,-1,-1,-31
2025-05-18 18:18:49.921,-4,1,-2,0,1,0,0,7
2025-05-18 18:18:49.932,-4,1,-2,0,1,0,0,7
2025-05-18 18:18:49.943,3,5,-2,-2,-3,-1,-1,-3
2025-05-18 18:18:49.954,3,5,-2,-2,-3,-1,-1,-3
2025-05-18 18:18:49.966,-1,-2,-3,-2,-1,-2,-5,0
2025-05-18 18:18:49.977,19,0,-2,-3,0,-1,1,4
2025-05-18 18:18:49.987,4,-5,1,-1,-1,-2,-4,1
2025-05-18 18:18:49.998,0,-5,0,1,-1,0,-3,-2
2025-05-18 18:18:50.011,0,-5,0,1,-1,0,-3,-2
2025-05-18 18:18:50.021,-12,-1,-2,-1,-1,-1,0,5
2025-05-18 18:18:50.032,-12,-1,-2,-1,-1,-1,0,5
2025-05-18 18:18:50.042,9,-9,-2,-1,0,-2,-2,0
2025-05-18 18:18:50.053,-7,2,1,1,0,0,1,0
2025-05-18 18:18:50.063,7,0,-1,-1,-2,-2,-2,-4
2025-05-18 18:18:50.075,7,0,-1,-1,-2,-2,-2,-4
2025-05-18 18:18:50.087,5,-12,-3,-1,-1,-2,-2,-3
2025-05-18 18:18:50.097,6,4,1,-2,0,2,-1,4
2025-05-18 18:18:50.107,-5,-2,-2,-1,0,-2,-3,0
2025-05-18 18:18:50.119,-2,1,-2,0,0,-2,-3,-4
2025-05-18 18:18:50.131,-2,1,-2,0,0,-2,-3,-4
2025-05-18 18:18:50.141,9,-3,-2,-1,-3,-2,-4,-4
2025-05-18 18:18:50.152,-7,0,1,-1,-2,0,1,-1
2025-05-18 18:18:50.162,-7,-5,-3,-1,-1,-1,-3,-4
2025-05-18 18:18:50.172,-7,-5,-3,-1,-1,-1,-3,-4
2025-05-18 18:18:50.183,-9,-1,-3,-1,-2,-3,0,-3
2025-05-18 18:18:50.195,-9,-1,-3,-1,-2,-3,0,-3
2025-05-18 18:18:50.206,-5,-4,-1,0,2,-3,-4,3
2025-05-18 18:18:50.216,-5,-4,-1,0,2,-3,-4,3
2025-05-18 18:18:50.228,-3,-2,-1,-2,-4,0,-1,-3
2025-05-18 18:18:50.237,3,-2,-1,0,2,-1,-1,-5
2025-05-18 18:18:50.248,3,-2,-1,0,2,-1,-1,-5
2025-05-18 18:18:50.259,1,5,-2,-2,-3,0,-1,6
2025-05-18 18:18:50.271,1,5,-2,-2,-3,0,-1,6
2025-05-18 18:18:50.282,-3,0,-1,-2,-2,0,-4,-2
2025-05-18 18:18:50.293,-3,0,-1,-2,-2,0,-4,-2
2025-05-18 18:18:50.305,3,0,-2,-2,-2,-2,-3,-1
2025-05-18 18:18:50.314,3,0,-2,-2,-2,-2,-3,-1
2025-05-18 18:18:50.326,-1,-5,-4,0,-3,0,-2,-3
2025-05-18 18:18:50.339,3,0,2,0,0,-1,-1,-5
2025-05-18 18:18:50.350,-16,-4,-2,-2,-2,-4,-4,21
2025-05-18 18:18:50.360,-19,-6,-3,-1,-4,-3,-3,5
2025-05-18 18:18:50.370,-19,-6,-3,-1,-4,-3,-3,5
2025-05-18 18:18:50.381,5,1,-1,-1,1,1,-1,-2
2025-05-18 18:18:50.393,5,1,-1,-1,1,1,-1,-2
2025-05-18 18:18:50.405,27,2,0,-1,-1,-2,0,-5
2025-05-18 18:18:50.416,-11,-12,-1,-3,0,1,1,3
2025-05-18 18:18:50.427,5,1,0,1,2,0,0,-4
2025-05-18 18:18:50.439,-4,-1,-1,-2,-3,-3,-3,-6
2025-05-18 18:18:50.452,-4,-1,-1,-2,-3,-3,-3,-6
2025-05-18 18:18:50.462,5,-3,-2,-1,-2,-1,-3,-4
2025-05-18 18:18:50.474,1,5,0,1,-1,-3,1,-1
2025-05-18 18:18:50.484,-12,-4,-6,-2,-3,-2,-4,-2
2025-05-18 18:18:50.495,-12,-4,-6,-2,-3,-2,-4,-2
2025-05-18 18:18:50.506,-1,0,0,-2,-1,-1,-2,-9
2025-05-18 18:18:50.516,-1,0,0,-2,-1,-1,-2,-9
2025-05-18 18:18:50.527,-2,-6,-4,-1,-2,-3,-1,0
2025-05-18 18:18:50.538,-2,-2,1,-1,2,0,1,-6
2025-05-18 18:18:50.550,-2,-2,0,-2,-2,0,0,-5
2025-05-18 18:18:50.561,3,-1,0,1,0,-1,-2,-4
2025-05-18 18:18:50.572,3,-1,0,1,0,-1,-2,-4
2025-05-18 18:18:50.583,4,1,-1,-1,-3,-3,-2,4
2025-05-18 18:18:50.593,3,-7,-1,-1,-3,-1,-1,-3
2025-05-18 18:18:50.604,0,-3,-5,-3,-1,-3,-3,-7
2025-05-18 18:18:50.615,0,-3,-5,-3,-1,-3,-3,-7
2025-05-18 18:18:50.626,4,-2,0,-1,0,0,-3,2
2025-05-18 18:18:50.637,4,-2,0,-1,0,0,-3,2
2025-05-18 18:18:50.648,3,1,-1,0,0,-3,-2,-9
2025-05-18 18:18:50.659,-2,4,0,1,1,-1,1,-2
2025-05-18 18:18:50.671,3,0,-1,0,-1,-2,-1,5
2025-05-18 18:18:50.683,-8,-6,-3,-1,-1,-3,-2,2
2025-05-18 18:18:50.695,-8,-6,-3,-1,-1,-3,-2,2
2025-05-18 18:18:50.706,3,-4,-5,-4,-6,-3,-3,0
2025-05-18 18:18:50.719,7,-1,-1,-1,-1,-1,3,3
2025-05-18 18:18:50.731,-5,0,-3,-3,-2,-2,-2,-8
2025-05-18 18:18:50.741,-6,-1,1,-1,-1,-3,-3,-2
2025-05-18 18:18:50.752,-6,-1,1,-1,-1,-3,-3,-2
2025-05-18 18:18:50.763,7,-1,-4,-1,-3,-1,-1,-1
2025-05-18 18:18:50.774,12,1,-2,-1,0,1,0,3
2025-05-18 18:18:50.785,-6,3,-1,-3,-1,-2,-2,-1
2025-05-18 18:18:50.796,7,-3,0,0,-3,0,0,0
2025-05-18 18:18:50.807,-5,-10,-4,-1,-1,0,-1,-1
2025-05-18 18:18:50.818,-5,-10,-4,-1,-1,0,-1,-1
2025-05-18 18:18:50.830,-3,0,1,1,-2,-1,0,-6
2025-05-18 18:18:50.840,0,-3,-1,-1,0,-1,0,0
2025-05-18 18:18:50.850,-5,2,-1,-2,-2,-2,-1,6
2025-05-18 18:18:50.862,-10,-3,0,-1,-1,-2,0,-1
2025-05-18 18:18:50.873,-10,-3,0,-1,-1,-2,0,-1
2025-05-18 18:18:50.885,5,-1,-1,1,-2,1,-2,-3
2025-05-18 18:18:50.895,-3,3,3,2,1,-1,-2,2
2025-05-18 18:18:50.906,-18,0,-2,-1,2,-1,-2,-2
2025-05-18 18:18:50.917,-5,4,-1,-1,0,0,-1,-3
2025-05-18 18:18:50.929,4,1,-3,-2,-2,-3,-3,-10
2025-05-18 18:18:50.940,4,-2,-1,-1,0,0,0,0
2025-05-18 18:18:50.951,-2,-5,-2,-2,-2,-3,-1,6
2025-05-18 18:18:50.962,-4,-2,-1,-2,-2,-2,-3,-2
2025-05-18 18:18:50.972,-4,-2,-1,-2,-2,-2,-3,-2
2025-05-18 18:18:50.982,5,-8,-1,-1,0,-4,-2,-1
2025-05-18 18:18:50.994,5,-8,-1,-1,0,-4,-2,-1
2025-05-18 18:18:51.006,-2,3,-1,-1,0,0,-2,-3
2025-05-18 18:18:51.016,-5,-2,0,-1,0,2,1,-4
2025-05-18 18:18:51.027,-10,1,-2,1,3,-1,-2,-6
2025-05-18 18:18:51.037,2,1,-2,-3,-3,-2,-2,0
2025-05-18 18:18:51.047,2,1,-2,-3,-3,-2,-2,0
2025-05-18 18:18:51.058,-5,0,0,0,1,2,-1,-6
2025-05-18 18:18:51.070,-33,-6,-1,-2,-1,-3,-2,-10
2025-05-18 18:18:51.081,2,6,-1,0,0,0,0,-2
2025-05-18 18:18:51.092,0,5,-2,-2,-1,-3,0,1
2025-05-18 18:18:51.103,5,0,-1,-2,-2,-2,-1,0
2025-05-18 18:18:51.114,5,0,-1,-2,-2,-2,-1,0
2025-05-18 18:18:51.125,3,-4,-4,0,-3,-1,-1,-1
2025-05-18 18:18:51.136,3,-4,-4,0,-3,-1,-1,-1
2025-05-18 18:18:51.147,0,-1,-1,-2,-3,-1,-2,-6
2025-05-18 18:18:51.159,7,3,-4,-1,2,-3,-1,4
2025-05-18 18:18:51.169,7,3,-4,-1,2,-3,-1,4
2025-05-18 18:18:51.180,4,-1,-3,-2,-3,-1,-1,-1
2025-05-18 18:18:51.192,4,-1,-3,-2,-3,-1,-1,-1
2025-05-18 18:18:51.203,4,-3,-1,-1,-1,-2,-1,-2
2025-05-18 18:18:51.214,4,-3,-1,-1,-1,-2,-1,-2
2025-05-18 18:18:51.225,7,1,-2,-2,-3,-2,-2,-4
2025-05-18 18:18:51.236,7,1,-2,-2,-3,-2,-2,-4
2025-05-18 18:18:51.246,-5,-1,-1,-1,-2,-3,-1,-3
2025-05-18 18:18:51.259,-5,-1,-1,-1,-2,-3,-1,-3
2025-05-18 18:18:51.270,-2,4,-2,1,-1,-2,-2,-4
2025-05-18 18:18:51.281,14,-3,0,-4,-1,0,1,4
2025-05-18 18:18:51.293,14,-3,0,-4,-1,0,1,4
2025-05-18 18:18:51.304,-3,1,0,-1,-2,-1,-1,-5
2025-05-18 18:18:51.315,-3,1,0,-1,-2,-1,-1,-5
2025-05-18 18:18:51.325,-12,-2,-2,0,-1,-2,1,-2
2025-05-18 18:18:51.337,0,2,-1,0,0,0,0,5
2025-05-18 18:18:51.347,-7,1,-1,0,-1,-2,-2,-2
2025-05-18 18:18:51.358,-7,1,-1,0,-1,-2,-2,-2
2025-05-18 18:18:51.368,-10,-3,-2,0,-3,-3,-2,-2
2025-05-18 18:18:51.378,-10,-3,-2,0,-3,-3,-2,-2
2025-05-18 18:18:51.390,7,2,-1,0,-1,0,0,0
2025-05-18 18:18:51.400,6,0,3,2,6,1,-1,-4
2025-05-18 18:18:51.411,-2,-3,-2,-3,-1,0,1,0
2025-05-18 18:18:51.423,-12,-3,-2,-2,-1,-3,-2,2
2025-05-18 18:18:51.433,-12,-3,-2,-2,-1,-3,-2,2
2025-05-18 18:18:51.445,0,3,-2,-1,0,-3,-2,-5
2025-05-18 18:18:51.456,1,-1,1,-1,-3,-2,-2,-8
2025-05-18 18:18:51.467,-12,-2,-3,-3,-3,-4,-1,24
2025-05-18 18:18:51.478,21,-2,-2,0,2,0,0,2
2025-05-18 18:18:51.490,-7,-4,-6,-2,-3,-3,-3,-2
2025-05-18 18:18:51.500,-7,-4,-6,-2,-3,-3,-3,-2
2025-05-18 18:18:51.510,1,2,0,1,-2,0,1,-12
2025-05-18 18:18:51.522,-3,-1,3,2,1,1,0,-4
2025-05-18 18:18:51.532,-5,-1,-2,-3,-3,-3,-3,-11
2025-05-18 18:18:51.542,3,-2,0,-1,6,-2,-1,-6
2025-05-18 18:18:51.553,3,-2,0,-1,6,-2,-1,-6
2025-05-18 18:18:51.564,3,4,0,-3,-6,-2,0,-7
2025-05-18 18:18:51.575,-3,-4,-1,-2,-2,-1,-2,-2
2025-05-18 18:18:51.587,-4,-2,-3,-1,-2,-3,0,-1
2025-05-18 18:18:51.599,-4,-2,-3,-1,-2,-3,0,-1
2025-05-18 18:18:51.609,1,1,-4,-2,-2,1,-2,-11
2025-05-18 18:18:51.619,1,1,-4,-2,-2,1,-2,-11
2025-05-18 18:18:51.630,0,2,-4,-3,-4,-3,2,-1
2025-05-18 18:18:51.640,1,0,0,-1,0,1,0,6
2025-05-18 18:18:51.652,1,-3,-1,-1,-3,-2,-2,-2
2025-05-18 18:18:51.664,-1,-7,-3,0,-1,-3,-2,-8
2025-05-18 18:18:51.676,-1,-7,-3,0,-1,-3,-2,-8
2025-05-18 18:18:51.687,-7,6,0,-1,-1,-2,-1,2
2025-05-18 18:18:51.697,8,-9,-4,0,-1,0,-2,1
2025-05-18 18:18:51.708,-4,-1,-3,-3,0,-1,0,-3
2025-05-18 18:18:51.722,12,4,1,-1,-2,-1,-1,-25
2025-05-18 18:18:51.733,12,4,1,-1,-2,-1,-1,-25
2025-05-18 18:18:51.744,-11,0,-2,-2,-2,-1,0,4
2025-05-18 18:18:51.755,2,-1,0,-2,-3,0,0,-5
2025-05-18 18:18:51.766,-1,-1,-2,-3,-1,-3,-2,1
2025-05-18 18:18:51.778,-1,-1,-2,-3,-1,-3,-2,1
2025-05-18 18:18:51.787,-1,-5,-2,-1,-2,1,2,4
2025-05-18 18:18:51.798,-1,-5,-2,-1,-2,1,2,4
2025-05-18 18:18:51.810,-5,1,-1,-1,2,-3,-2,-4
2025-05-18 18:18:51.821,-15,-2,1,0,0,0,-2,-2
2025-05-18 18:18:51.832,-8,-1,-3,-2,-4,-3,-1,0
2025-05-18 18:18:51.844,-3,3,0,0,-1,-1,-1,-3
2025-05-18 18:18:51.855,-3,3,0,0,-1,-1,-1,-3
2025-05-18 18:18:51.866,-2,5,-1,-2,-1,-2,1,6
2025-05-18 18:18:51.877,4,3,0,2,2,1,-2,4
2025-05-18 18:18:51.887,-5,0,-3,-1,-2,-3,-2,-5
2025-05-18 18:18:51.899,-5,0,-3,-1,-2,-3,-2,-5
2025-05-18 18:18:51.910,10,3,0,-2,-2,-1,1,-2
2025-05-18 18:18:51.921,5,-3,-2,0,-1,-2,-1,1
2025-05-18 18:18:51.932,4,3,0,-3,-4,0,0,-6
2025-05-18 18:18:51.943,-4,-4,-1,1,1,0,-3,-1
2025-05-18 18:18:51.954,-8,2,-1,-1,-2,-1,1,-4
2025-05-18 18:18:51.965,-5,-1,-4,-1,-2,-1,1,1
2025-05-18 18:18:51.974,-5,-1,-4,-1,-2,-1,1,1
2025-05-18 18:18:51.985,-9,-2,-4,-2,0,-4,0,-4
2025-05-18 18:18:51.995,2,-3,-2,-1,1,0,-4,-2
2025-05-18 18:18:52.006,-5,1,-2,-1,-1,0,1,-2
2025-05-18 18:18:52.017,-5,1,-2,-1,-1,0,1,-2
2025-05-18 18:18:52.027,5,0,-3,-3,-2,-2,0,2
2025-05-18 18:18:52.040,5,0,-3,-3,-2,-2,0,2
2025-05-18 18:18:52.050,-3,1,0,-2,-2,-2,1,1
2025-05-18 18:18:52.061,-4,-7,-1,-1,-1,-1,-2,1
2025-05-18 18:18:52.072,13,5,1,-1,0,-1,0,-34
2025-05-18 18:18:52.083,-28,-5,-1,-2,-1,-2,0,3
2025-05-18 18:18:52.094,-28,-5,-1,-2,-1,-2,0,3
2025-05-18 18:18:52.105,-9,-1,-2,-1,-1,-3,-1,5
2025-05-18 18:18:52.116,-9,-1,-2,-1,-1,-3,-1,5
2025-05-18 18:18:52.127,-4,0,-1,-2,-2,-1,1,4
2025-05-18 18:18:52.138,-4,0,-1,-2,-2,-1,1,4
2025-05-18 18:18:52.148,1,3,0,0,0,-2,1,-3
2025-05-18 18:18:52.160,1,3,0,0,0,-2,1,-3
2025-05-18 18:18:52.170,-6,-6,-3,-1,1,0,0,1
2025-05-18 18:18:52.180,-6,-6,-3,-1,1,0,0,1
2025-05-18 18:18:52.192,-5,2,-2,-2,-2,-4,-1,-2
2025-05-18 18:18:52.203,-2,5,-1,-2,-2,-1,0,3
2025-05-18 18:18:52.214,-2,5,-1,-2,-2,-1,0,3
2025-05-18 18:18:52.225,7,-1,-1,-1,0,-2,1,1
2025-05-18 18:18:52.235,7,-1,-1,-1,0,-2,1,1
2025-05-18 18:18:52.247,0,4,1,-1,-3,-1,1,-4
2025-05-18 18:18:52.259,1,-3,-1,1,1,1,-1,-2
2025-05-18 18:18:52.270,-2,3,-2,-1,-2,-2,-1,-1
2025-05-18 18:18:52.281,-2,3,-2,-1,-2,-2,-1,-1
2025-05-18 18:18:52.291,1,6,-2,-1,-2,0,2,2
2025-05-18 18:18:52.302,1,6,-2,-1,-2,0,2,2
2025-05-18 18:18:52.313,-2,0,-2,-2,0,-2,0,-4
2025-05-18 18:18:52.326,10,-1,0,0,-1,-1,1,-25
2025-05-18 18:18:52.338,10,-1,0,0,-1,-1,1,-25
2025-05-18 18:18:52.349,-7,-1,0,-2,-3,-1,2,5
2025-05-18 18:18:52.359,-7,-1,0,-2,-3,-1,2,5
2025-05-18 18:18:52.370,-12,-5,-1,-1,1,1,2,-4
2025-05-18 18:18:52.382,0,0,0,3,3,-2,-4,2
2025-05-18 18:18:52.393,0,2,-1,-1,-4,-2,1,5
2025-05-18 18:18:52.404,-34,-3,-3,-2,1,0,-1,-8
2025-05-18 18:18:52.415,-34,-3,-3,-2,1,0,-1,-8
2025-05-18 18:18:52.426,-1,-1,-3,-1,-3,-1,2,-2
